EXERCÍCIO 01
Teste Tração 01
 L0 = 100.00 mm
 d0 =  10.00 mm
 A  =  78.47 mm² (no limite de proporcionalidade)
  Carga [kN]  Desloc [mm]
      0.0000       0.0000
      0.3764       0.0024
      0.7529       0.0049
      1.1293       0.0073
      1.5058       0.0097
      1.8822       0.0122
      2.2587       0.0146
      2.6351       0.0170
      3.0116       0.0195
      3.3880       0.0219
      3.7645       0.0243
      4.1409       0.0268
      4.5174       0.0292
      4.8938       0.0316
      5.2703       0.0341
      5.6467       0.0365
      6.0232       0.0389
      6.3996       0.0414
      6.7761       0.0438
      7.1525       0.0462
      7.5290       0.0487
      7.9054       0.0511
      8.2819       0.0535
      8.6583       0.0560
      9.0348       0.0584
      9.4112       0.0608
      9.7877       0.0633
     10.1641       0.0657
     10.5406       0.0681
     10.9170       0.0706
     11.2935       0.0730
     11.6699       0.0754
     12.0464       0.0779
     12.4228       0.0803
     12.7993       0.0827
     13.1757       0.0852
     13.5522       0.0876
     13.9286       0.0900
     14.3051       0.0925
     14.6815       0.0949
     15.0580       0.0973
     15.4344       0.0998
     15.8109       0.1022
     16.1873       0.1046
     16.5638       0.1071
     16.9402       0.1095
     17.3167       0.1119
     17.6931       0.1144
     18.0696       0.1168
     18.4460       0.1192
     18.8225       0.1217
     19.1989       0.1241
     19.5754       0.1265
     19.9518       0.1290
     20.3283       0.1314
     20.7047       0.1338
     21.0812       0.1363
     21.4576       0.1387
     21.8341       0.1411

Teste Tração 02
 L0 = 100.00 mm
 d0 =  10.00 mm
  Carga [kN]  Desloc [mm]
      0.0000       0.0088
      0.7529       0.0137
      1.5058       0.0185
      2.2587       0.0234
      3.0116       0.0283
      3.7645       0.0331
      4.5174       0.0380
      5.2703       0.0429
      6.0232       0.0477
      6.7761       0.0526
      7.5290       0.0575
      8.2819       0.0623
      9.0348       0.0672
      9.7877       0.0721
     10.5406       0.0769
     11.2935       0.0818
     12.0464       0.0867
     12.7993       0.0915
     13.5522       0.0964
     14.3051       0.1013
     15.0580       0.1061
     15.8109       0.1110
     16.5638       0.1159
     17.3167       0.1207
     18.0696       0.1256
     18.8225       0.1305
     19.5754       0.1353
     20.3283       0.1402
     21.0812       0.1451
     21.8341       0.1499

EXERCÍCIO 02
 a = 335.00 mm
 b = 260.00 mm
 δ =   0.24 mm

EXERCÍCIO 03
 Item b
 d = 145.00 mm
