EXERCÍCIO 01
Teste Tração 01
 L0 = 100.00 mm
 d0 =  10.00 mm
 A  =  78.45 mm² (no limite de proporcionalidade)
  Carga [kN]  Desloc [mm]
      0.0000       0.0000
      0.4909       0.0031
      0.9817       0.0063
      1.4726       0.0094
      1.9635       0.0126
      2.4544       0.0157
      2.9452       0.0188
      3.4361       0.0220
      3.9270       0.0251
      4.4179       0.0283
      4.9087       0.0314
      5.3996       0.0345
      5.8905       0.0377
      6.3814       0.0408
      6.8722       0.0440
      7.3631       0.0471
      7.8540       0.0503
      8.3449       0.0534
      8.8357       0.0565
      9.3266       0.0597
      9.8175       0.0628
     10.3084       0.0660
     10.7992       0.0691
     11.2901       0.0722
     11.7810       0.0754
     12.2718       0.0785
     12.7627       0.0817
     13.2536       0.0848
     13.7445       0.0879
     14.2353       0.0911
     14.7262       0.0942
     15.2171       0.0974
     15.7080       0.1005
     16.1988       0.1036
     16.6897       0.1068
     17.1806       0.1099
     17.6715       0.1131
     18.1623       0.1162
     18.6532       0.1193
     19.1441       0.1225
     19.6350       0.1256
     20.1258       0.1288
     20.6167       0.1319
     21.1076       0.1351
     21.5984       0.1382
     22.0893       0.1413
     22.5802       0.1445
     23.0711       0.1476
     23.5619       0.1508
     24.0528       0.1539
     24.5437       0.1570
     25.0346       0.1602
     25.5254       0.1633

Teste Tração 02
 L0 = 100.00 mm
 d0 =  10.00 mm
  Carga [kN]  Desloc [mm]
      0.0000       0.0090
      0.8234       0.0143
      1.6468       0.0196
      2.4702       0.0248
      3.2936       0.0301
      4.1170       0.0354
      4.9404       0.0406
      5.7638       0.0459
      6.5872       0.0512
      7.4106       0.0565
      8.2340       0.0617
      9.0574       0.0670
      9.8808       0.0723
     10.7042       0.0775
     11.5276       0.0828
     12.3510       0.0881
     13.1744       0.0933
     13.9978       0.0986
     14.8212       0.1039
     15.6446       0.1091
     16.4680       0.1144
     17.2914       0.1197
     18.1148       0.1249
     18.9382       0.1302
     19.7616       0.1355
     20.5850       0.1407
     21.4084       0.1460
     22.2318       0.1513
     23.0552       0.1566
     23.8786       0.1618
     24.7020       0.1671
     25.5254       0.1724

EXERCÍCIO 02
 a = 350.00 mm
 b = 225.00 mm
 δ =   0.06 mm

EXERCÍCIO 03
 Item b
 d =  75.00 mm
