EXERCÍCIO 01
Teste Tração 01
 L0 = 100.00 mm
 d0 =  10.00 mm
 A  =  78.48 mm² (no limite de proporcionalidade)
  Carga [kN]  Desloc [mm]
      0.0000       0.0000
      0.4216       0.0028
      0.8431       0.0057
      1.2647       0.0085
      1.6862       0.0114
      2.1078       0.0142
      2.5293       0.0170
      2.9509       0.0199
      3.3724       0.0227
      3.7940       0.0256
      4.2155       0.0284
      4.6371       0.0312
      5.0586       0.0341
      5.4802       0.0369
      5.9017       0.0398
      6.3233       0.0426
      6.7448       0.0454
      7.1664       0.0483
      7.5879       0.0511
      8.0095       0.0540
      8.4310       0.0568
      8.8526       0.0596
      9.2741       0.0625
      9.6957       0.0653
     10.1172       0.0682
     10.5388       0.0710
     10.9603       0.0738
     11.3819       0.0767
     11.8034       0.0795
     12.2250       0.0824
     12.6465       0.0852
     13.0681       0.0880
     13.4896       0.0909
     13.9112       0.0937
     14.3327       0.0966
     14.7543       0.0994
     15.1758       0.1022
     15.5974       0.1051
     16.0189       0.1079
     16.4405       0.1108
     16.8620       0.1136
     17.2836       0.1164
     17.7051       0.1193
     18.1267       0.1221
     18.5482       0.1250
     18.9698       0.1278
     19.3913       0.1306
     19.8129       0.1335
     20.2344       0.1363
     20.6560       0.1392

Teste Tração 02
 L0 = 100.00 mm
 d0 =  10.00 mm
  Carga [kN]  Desloc [mm]
      0.0000       0.0090
      0.6663       0.0134
      1.3326       0.0179
      1.9990       0.0224
      2.6653       0.0269
      3.3316       0.0314
      3.9979       0.0359
      4.6643       0.0404
      5.3306       0.0449
      5.9969       0.0494
      6.6632       0.0538
      7.3295       0.0583
      7.9959       0.0628
      8.6622       0.0673
      9.3285       0.0718
      9.9948       0.0763
     10.6611       0.0808
     11.3275       0.0853
     11.9938       0.0898
     12.6601       0.0942
     13.3264       0.0987
     13.9928       0.1032
     14.6591       0.1077
     15.3254       0.1122
     15.9917       0.1167
     16.6580       0.1212
     17.3244       0.1257
     17.9907       0.1302
     18.6570       0.1346
     19.3233       0.1391
     19.9897       0.1436
     20.6560       0.1481

EXERCÍCIO 02
 a = 320.00 mm
 b = 225.00 mm
 δ =   0.21 mm

EXERCÍCIO 03
 Item a
 b = 135.00 mm
