EXERCÍCIO 01
Teste Tração 01
 L0 = 100.00 mm
 d0 =  10.00 mm
 A  =  78.48 mm² (no limite de proporcionalidade)
  Carga [kN]  Desloc [mm]
      0.0000       0.0000
      0.4344       0.0028
      0.8687       0.0057
      1.3031       0.0085
      1.7375       0.0113
      2.1719       0.0142
      2.6062       0.0170
      3.0406       0.0199
      3.4750       0.0227
      3.9094       0.0255
      4.3437       0.0284
      4.7781       0.0312
      5.2125       0.0340
      5.6469       0.0369
      6.0812       0.0397
      6.5156       0.0425
      6.9500       0.0454
      7.3843       0.0482
      7.8187       0.0511
      8.2531       0.0539
      8.6875       0.0567
      9.1218       0.0596
      9.5562       0.0624
      9.9906       0.0652
     10.4250       0.0681
     10.8593       0.0709
     11.2937       0.0737
     11.7281       0.0766
     12.1625       0.0794
     12.5968       0.0823
     13.0312       0.0851
     13.4656       0.0879
     13.8999       0.0908
     14.3343       0.0936
     14.7687       0.0964
     15.2031       0.0993
     15.6374       0.1021
     16.0718       0.1049
     16.5062       0.1078
     16.9406       0.1106
     17.3749       0.1134
     17.8093       0.1163
     18.2437       0.1191
     18.6781       0.1220
     19.1124       0.1248
     19.5468       0.1276
     19.9812       0.1305
     20.4155       0.1333
     20.8499       0.1361
     21.2843       0.1390

Teste Tração 02
 L0 = 100.00 mm
 d0 =  10.00 mm
  Carga [kN]  Desloc [mm]
      0.0000       0.0135
      0.6651       0.0179
      1.3303       0.0222
      1.9954       0.0265
      2.6605       0.0309
      3.3257       0.0352
      3.9908       0.0396
      4.6559       0.0439
      5.3211       0.0483
      5.9862       0.0526
      6.6513       0.0569
      7.3165       0.0613
      7.9816       0.0656
      8.6467       0.0700
      9.3119       0.0743
      9.9770       0.0787
     10.6421       0.0830
     11.3073       0.0874
     11.9724       0.0917
     12.6375       0.0960
     13.3027       0.1004
     13.9678       0.1047
     14.6329       0.1091
     15.2981       0.1134
     15.9632       0.1178
     16.6284       0.1221
     17.2935       0.1264
     17.9586       0.1308
     18.6238       0.1351
     19.2889       0.1395
     19.9540       0.1438
     20.6192       0.1482
     21.2843       0.1525

EXERCÍCIO 02
 a = 305.00 mm
 b = 225.00 mm
 δ =   0.25 mm

EXERCÍCIO 03
 Item a
 b = 120.00 mm
