EXERCÍCIO 01
Teste Tração 01
 L0 = 100.00 mm
 d0 =  10.00 mm
 A  =  78.45 mm² (no limite de proporcionalidade)
  Carga [kN]  Desloc [mm]
      0.0000       0.0000
      0.5009       0.0031
      1.0018       0.0062
      1.5026       0.0092
      2.0035       0.0123
      2.5044       0.0154
      3.0053       0.0185
      3.5061       0.0216
      4.0070       0.0246
      4.5079       0.0277
      5.0088       0.0308
      5.5096       0.0339
      6.0105       0.0370
      6.5114       0.0401
      7.0123       0.0431
      7.5131       0.0462
      8.0140       0.0493
      8.5149       0.0524
      9.0158       0.0555
      9.5167       0.0585
     10.0175       0.0616
     10.5184       0.0647
     11.0193       0.0678
     11.5202       0.0709
     12.0210       0.0739
     12.5219       0.0770
     13.0228       0.0801
     13.5237       0.0832
     14.0245       0.0863
     14.5254       0.0893
     15.0263       0.0924
     15.5272       0.0955
     16.0281       0.0986
     16.5289       0.1017
     17.0298       0.1047
     17.5307       0.1078
     18.0316       0.1109
     18.5324       0.1140
     19.0333       0.1171
     19.5342       0.1202
     20.0351       0.1232
     20.5359       0.1263
     21.0368       0.1294
     21.5377       0.1325
     22.0386       0.1356
     22.5394       0.1386
     23.0403       0.1417
     23.5412       0.1448
     24.0421       0.1479
     24.5430       0.1510
     25.0438       0.1540
     25.5447       0.1571
     26.0456       0.1602
     26.5465       0.1633

Teste Tração 02
 L0 = 100.00 mm
 d0 =  10.00 mm
  Carga [kN]  Desloc [mm]
      0.0000       0.0097
      0.7585       0.0143
      1.5169       0.0190
      2.2754       0.0237
      3.0339       0.0283
      3.7924       0.0330
      4.5508       0.0377
      5.3093       0.0423
      6.0678       0.0470
      6.8262       0.0517
      7.5847       0.0563
      8.3432       0.0610
      9.1016       0.0657
      9.8601       0.0703
     10.6186       0.0750
     11.3771       0.0797
     12.1355       0.0843
     12.8940       0.0890
     13.6525       0.0937
     14.4109       0.0983
     15.1694       0.1030
     15.9279       0.1077
     16.6863       0.1123
     17.4448       0.1170
     18.2033       0.1216
     18.9618       0.1263
     19.7202       0.1310
     20.4787       0.1356
     21.2372       0.1403
     21.9956       0.1450
     22.7541       0.1496
     23.5126       0.1543
     24.2710       0.1590
     25.0295       0.1636
     25.7880       0.1683
     26.5465       0.1730

EXERCÍCIO 02
 a = 345.00 mm
 b = 225.00 mm
 δ =   0.19 mm

EXERCÍCIO 03
 Item b
 d =  95.00 mm
