EXERCÍCIO 01
Teste Tração 01
 L0 = 100.00 mm
 d0 =  10.00 mm
 A  =  78.45 mm² (no limite de proporcionalidade)
  Carga [kN]  Desloc [mm]
      0.0000       0.0000
      0.4969       0.0035
      0.9938       0.0070
      1.4907       0.0105
      1.9877       0.0141
      2.4846       0.0176
      2.9815       0.0211
      3.4784       0.0246
      3.9753       0.0281
      4.4722       0.0316
      4.9692       0.0351
      5.4661       0.0387
      5.9630       0.0422
      6.4599       0.0457
      6.9568       0.0492
      7.4537       0.0527
      7.9506       0.0562
      8.4476       0.0598
      8.9445       0.0633
      9.4414       0.0668
      9.9383       0.0703
     10.4352       0.0738
     10.9321       0.0773
     11.4291       0.0808
     11.9260       0.0844
     12.4229       0.0879
     12.9198       0.0914
     13.4167       0.0949
     13.9136       0.0984
     14.4105       0.1019
     14.9075       0.1054
     15.4044       0.1090
     15.9013       0.1125
     16.3982       0.1160
     16.8951       0.1195
     17.3920       0.1230
     17.8890       0.1265
     18.3859       0.1301
     18.8828       0.1336
     19.3797       0.1371
     19.8766       0.1406
     20.3735       0.1441
     20.8704       0.1476
     21.3674       0.1511
     21.8643       0.1547
     22.3612       0.1582
     22.8581       0.1617
     23.3550       0.1652
     23.8519       0.1687
     24.3489       0.1722
     24.8458       0.1757
     25.3427       0.1793
     25.8396       0.1828

Teste Tração 02
 L0 = 100.00 mm
 d0 =  10.00 mm
  Carga [kN]  Desloc [mm]
      0.0000       0.0123
      0.7600       0.0177
      1.5200       0.0231
      2.2800       0.0284
      3.0400       0.0338
      3.7999       0.0392
      4.5599       0.0446
      5.3199       0.0500
      6.0799       0.0553
      6.8399       0.0607
      7.5999       0.0661
      8.3599       0.0715
      9.1199       0.0768
      9.8798       0.0822
     10.6398       0.0876
     11.3998       0.0930
     12.1598       0.0983
     12.9198       0.1037
     13.6798       0.1091
     14.4398       0.1145
     15.1998       0.1198
     15.9598       0.1252
     16.7197       0.1306
     17.4797       0.1360
     18.2397       0.1413
     18.9997       0.1467
     19.7597       0.1521
     20.5197       0.1575
     21.2797       0.1628
     22.0397       0.1682
     22.7996       0.1736
     23.5596       0.1790
     24.3196       0.1843
     25.0796       0.1897
     25.8396       0.1951

EXERCÍCIO 02
 a = 335.00 mm
 b = 230.00 mm
 δ =   0.06 mm

EXERCÍCIO 03
 Item a
 b = 130.00 mm
