EXERCÍCIO 01
Teste Tração 01
 L0 = 100.00 mm
 d0 =  10.00 mm
 A  =  78.46 mm² (no limite de proporcionalidade)
  Carga [kN]  Desloc [mm]
      0.0000       0.0000
      0.4547       0.0030
      0.9094       0.0059
      1.3641       0.0089
      1.8188       0.0119
      2.2735       0.0148
      2.7282       0.0178
      3.1829       0.0208
      3.6376       0.0238
      4.0923       0.0267
      4.5470       0.0297
      5.0017       0.0327
      5.4565       0.0356
      5.9112       0.0386
      6.3659       0.0416
      6.8206       0.0445
      7.2753       0.0475
      7.7300       0.0505
      8.1847       0.0534
      8.6394       0.0564
      9.0941       0.0594
      9.5488       0.0623
     10.0035       0.0653
     10.4582       0.0683
     10.9129       0.0713
     11.3676       0.0742
     11.8223       0.0772
     12.2770       0.0802
     12.7317       0.0831
     13.1864       0.0861
     13.6411       0.0891
     14.0958       0.0920
     14.5505       0.0950
     15.0052       0.0980
     15.4599       0.1009
     15.9146       0.1039
     16.3694       0.1069
     16.8241       0.1099
     17.2788       0.1128
     17.7335       0.1158
     18.1882       0.1188
     18.6429       0.1217
     19.0976       0.1247
     19.5523       0.1277
     20.0070       0.1306
     20.4617       0.1336
     20.9164       0.1366
     21.3711       0.1395
     21.8258       0.1425
     22.2805       0.1455
     22.7352       0.1484
     23.1899       0.1514
     23.6446       0.1544
     24.0993       0.1574
     24.5540       0.1603
     25.0087       0.1633
     25.4634       0.1663
     25.9181       0.1692

Teste Tração 02
 L0 = 100.00 mm
 d0 =  10.00 mm
  Carga [kN]  Desloc [mm]
      0.0000       0.0118
      0.7199       0.0165
      1.4399       0.0212
      2.1598       0.0259
      2.8798       0.0306
      3.5997       0.0353
      4.3197       0.0400
      5.0396       0.0447
      5.7596       0.0494
      6.4795       0.0541
      7.1995       0.0588
      7.9194       0.0635
      8.6394       0.0682
      9.3593       0.0729
     10.0793       0.0776
     10.7992       0.0823
     11.5192       0.0870
     12.2391       0.0917
     12.9591       0.0964
     13.6790       0.1011
     14.3990       0.1058
     15.1189       0.1105
     15.8389       0.1152
     16.5588       0.1199
     17.2788       0.1246
     17.9987       0.1293
     18.7187       0.1340
     19.4386       0.1387
     20.1586       0.1434
     20.8785       0.1481
     21.5984       0.1528
     22.3184       0.1575
     23.0383       0.1622
     23.7583       0.1669
     24.4782       0.1716
     25.1982       0.1763
     25.9181       0.1810

EXERCÍCIO 02
 a = 345.00 mm
 b = 255.00 mm
 δ =   0.17 mm

EXERCÍCIO 03
 Item b
 d = 110.00 mm
