EXERCÍCIO 01
Teste Tração 01
 L0 = 100.00 mm
 d0 =  10.00 mm
 A  =  78.45 mm² (no limite de proporcionalidade)
  Carga [kN]  Desloc [mm]
      0.0000       0.0000
      0.4909       0.0033
      0.9817       0.0065
      1.4726       0.0098
      1.9635       0.0130
      2.4544       0.0163
      2.9452       0.0195
      3.4361       0.0228
      3.9270       0.0260
      4.4179       0.0293
      4.9087       0.0326
      5.3996       0.0358
      5.8905       0.0391
      6.3814       0.0423
      6.8722       0.0456
      7.3631       0.0488
      7.8540       0.0521
      8.3449       0.0553
      8.8357       0.0586
      9.3266       0.0618
      9.8175       0.0651
     10.3084       0.0684
     10.7992       0.0716
     11.2901       0.0749
     11.7810       0.0781
     12.2718       0.0814
     12.7627       0.0846
     13.2536       0.0879
     13.7445       0.0911
     14.2353       0.0944
     14.7262       0.0977
     15.2171       0.1009
     15.7080       0.1042
     16.1988       0.1074
     16.6897       0.1107
     17.1806       0.1139
     17.6715       0.1172
     18.1623       0.1204
     18.6532       0.1237
     19.1441       0.1270
     19.6350       0.1302
     20.1258       0.1335
     20.6167       0.1367
     21.1076       0.1400
     21.5984       0.1432
     22.0893       0.1465
     22.5802       0.1497
     23.0711       0.1530
     23.5619       0.1563
     24.0528       0.1595
     24.5437       0.1628
     25.0346       0.1660
     25.5254       0.1693

Teste Tração 02
 L0 = 100.00 mm
 d0 =  10.00 mm
  Carga [kN]  Desloc [mm]
      0.0000       0.0101
      0.7293       0.0149
      1.4586       0.0198
      2.1879       0.0246
      2.9172       0.0294
      3.6465       0.0343
      4.3758       0.0391
      5.1051       0.0439
      5.8344       0.0488
      6.5637       0.0536
      7.2930       0.0584
      8.0223       0.0633
      8.7516       0.0681
      9.4809       0.0730
     10.2102       0.0778
     10.9395       0.0826
     11.6688       0.0875
     12.3981       0.0923
     13.1274       0.0971
     13.8567       0.1020
     14.5860       0.1068
     15.3153       0.1116
     16.0446       0.1165
     16.7739       0.1213
     17.5032       0.1262
     18.2325       0.1310
     18.9618       0.1358
     19.6911       0.1407
     20.4204       0.1455
     21.1497       0.1503
     21.8789       0.1552
     22.6082       0.1600
     23.3375       0.1648
     24.0668       0.1697
     24.7961       0.1745
     25.5254       0.1794

EXERCÍCIO 02
 a = 330.00 mm
 b = 260.00 mm
 δ =   0.18 mm

EXERCÍCIO 03
 Item a
 b = 100.00 mm
