EXERCÍCIO 01
Teste Tração 01
 L0 = 100.00 mm
 d0 =  10.00 mm
 A  =  78.47 mm² (no limite de proporcionalidade)
  Carga [kN]  Desloc [mm]
      0.0000       0.0000
      0.5113       0.0033
      1.0226       0.0066
      1.5338       0.0099
      2.0451       0.0132
      2.5564       0.0164
      3.0677       0.0197
      3.5790       0.0230
      4.0902       0.0263
      4.6015       0.0296
      5.1128       0.0329
      5.6241       0.0362
      6.1353       0.0395
      6.6466       0.0427
      7.1579       0.0460
      7.6692       0.0493
      8.1805       0.0526
      8.6917       0.0559
      9.2030       0.0592
      9.7143       0.0625
     10.2256       0.0658
     10.7369       0.0690
     11.2481       0.0723
     11.7594       0.0756
     12.2707       0.0789
     12.7820       0.0822
     13.2932       0.0855
     13.8045       0.0888
     14.3158       0.0921
     14.8271       0.0953
     15.3384       0.0986
     15.8496       0.1019
     16.3609       0.1052
     16.8722       0.1085
     17.3835       0.1118
     17.8948       0.1151
     18.4060       0.1184
     18.9173       0.1216
     19.4286       0.1249
     19.9399       0.1282
     20.4512       0.1315
     20.9624       0.1348
     21.4737       0.1381
     21.9850       0.1414
     22.4963       0.1447
     23.0075       0.1480
     23.5188       0.1512
     24.0301       0.1545
     24.5414       0.1578
     25.0527       0.1611
     25.5639       0.1644
     26.0752       0.1677

Teste Tração 02
 L0 = 100.00 mm
 d0 =  10.00 mm
  Carga [kN]  Desloc [mm]
      0.0000       0.0090
      0.7669       0.0140
      1.5338       0.0189
      2.3008       0.0238
      3.0677       0.0288
      3.8346       0.0337
      4.6015       0.0386
      5.3684       0.0436
      6.1353       0.0485
      6.9023       0.0534
      7.6692       0.0584
      8.4361       0.0633
      9.2030       0.0682
      9.9699       0.0732
     10.7369       0.0781
     11.5038       0.0830
     12.2707       0.0879
     13.0376       0.0929
     13.8045       0.0978
     14.5714       0.1027
     15.3384       0.1077
     16.1053       0.1126
     16.8722       0.1175
     17.6391       0.1225
     18.4060       0.1274
     19.1730       0.1323
     19.9399       0.1373
     20.7068       0.1422
     21.4737       0.1471
     22.2406       0.1521
     23.0075       0.1570
     23.7745       0.1619
     24.5414       0.1669
     25.3083       0.1718
     26.0752       0.1767

EXERCÍCIO 02
 a = 305.00 mm
 b = 235.00 mm
 δ =   0.08 mm

EXERCÍCIO 03
 Item a
 b = 115.00 mm
