EXERCÍCIO 01
Teste Tração 01
 L0 = 100.00 mm
 d0 =  10.00 mm
 A  =  78.44 mm² (no limite de proporcionalidade)
  Carga [kN]  Desloc [mm]
      0.0000       0.0000
      0.5451       0.0038
      1.0901       0.0076
      1.6352       0.0114
      2.1803       0.0153
      2.7253       0.0191
      3.2704       0.0229
      3.8155       0.0267
      4.3605       0.0305
      4.9056       0.0343
      5.4507       0.0381
      5.9957       0.0419
      6.5408       0.0458
      7.0859       0.0496
      7.6309       0.0534
      8.1760       0.0572
      8.7211       0.0610
      9.2661       0.0648
      9.8112       0.0686
     10.3563       0.0725
     10.9013       0.0763
     11.4464       0.0801
     11.9915       0.0839
     12.5365       0.0877
     13.0816       0.0915
     13.6267       0.0953
     14.1717       0.0991
     14.7168       0.1030
     15.2619       0.1068
     15.8069       0.1106
     16.3520       0.1144
     16.8971       0.1182
     17.4421       0.1220
     17.9872       0.1258
     18.5323       0.1296
     19.0773       0.1335
     19.6224       0.1373
     20.1675       0.1411
     20.7125       0.1449
     21.2576       0.1487
     21.8027       0.1525
     22.3477       0.1563
     22.8928       0.1602
     23.4379       0.1640
     23.9829       0.1678
     24.5280       0.1716
     25.0731       0.1754
     25.6181       0.1792
     26.1632       0.1830
     26.7082       0.1868
     27.2533       0.1907

Teste Tração 02
 L0 = 100.00 mm
 d0 =  10.00 mm
  Carga [kN]  Desloc [mm]
      0.0000       0.0096
      0.8259       0.0154
      1.6517       0.0212
      2.4776       0.0269
      3.3034       0.0327
      4.1293       0.0385
      4.9551       0.0443
      5.7810       0.0500
      6.6069       0.0558
      7.4327       0.0616
      8.2586       0.0674
      9.0844       0.0732
      9.9103       0.0789
     10.7362       0.0847
     11.5620       0.0905
     12.3879       0.0963
     13.2137       0.1020
     14.0396       0.1078
     14.8654       0.1136
     15.6913       0.1194
     16.5172       0.1252
     17.3430       0.1309
     18.1689       0.1367
     18.9947       0.1425
     19.8206       0.1483
     20.6465       0.1540
     21.4723       0.1598
     22.2982       0.1656
     23.1240       0.1714
     23.9499       0.1771
     24.7757       0.1829
     25.6016       0.1887
     26.4275       0.1945
     27.2533       0.2003

EXERCÍCIO 02
 a = 330.00 mm
 b = 220.00 mm
 δ =   0.08 mm

EXERCÍCIO 03
 Item b
 d = 120.00 mm
