EXERCÍCIO 01
Teste Tração 01
 L0 = 100.00 mm
 d0 =  10.00 mm
 A  =  78.47 mm² (no limite de proporcionalidade)
  Carga [kN]  Desloc [mm]
      0.0000       0.0000
      0.3791       0.0026
      0.7582       0.0052
      1.1373       0.0077
      1.5164       0.0103
      1.8955       0.0129
      2.2746       0.0155
      2.6537       0.0181
      3.0328       0.0206
      3.4120       0.0232
      3.7911       0.0258
      4.1702       0.0284
      4.5493       0.0310
      4.9284       0.0336
      5.3075       0.0361
      5.6866       0.0387
      6.0657       0.0413
      6.4448       0.0439
      6.8239       0.0465
      7.2030       0.0490
      7.5821       0.0516
      7.9612       0.0542
      8.3403       0.0568
      8.7194       0.0594
      9.0985       0.0619
      9.4776       0.0645
      9.8567       0.0671
     10.2359       0.0697
     10.6150       0.0723
     10.9941       0.0749
     11.3732       0.0774
     11.7523       0.0800
     12.1314       0.0826
     12.5105       0.0852
     12.8896       0.0878
     13.2687       0.0903
     13.6478       0.0929
     14.0269       0.0955
     14.4060       0.0981
     14.7851       0.1007
     15.1642       0.1032
     15.5433       0.1058
     15.9224       0.1084
     16.3015       0.1110
     16.6806       0.1136
     17.0598       0.1162
     17.4389       0.1187
     17.8180       0.1213
     18.1971       0.1239
     18.5762       0.1265
     18.9553       0.1291
     19.3344       0.1316
     19.7135       0.1342

Teste Tração 02
 L0 = 100.00 mm
 d0 =  10.00 mm
  Carga [kN]  Desloc [mm]
      0.0000       0.0106
      0.5328       0.0142
      1.0656       0.0178
      1.5984       0.0214
      2.1312       0.0251
      2.6640       0.0287
      3.1968       0.0323
      3.7296       0.0360
      4.2624       0.0396
      4.7952       0.0432
      5.3280       0.0468
      5.8608       0.0505
      6.3936       0.0541
      6.9264       0.0577
      7.4592       0.0613
      7.9920       0.0650
      8.5248       0.0686
      9.0576       0.0722
      9.5903       0.0759
     10.1231       0.0795
     10.6559       0.0831
     11.1887       0.0867
     11.7215       0.0904
     12.2543       0.0940
     12.7871       0.0976
     13.3199       0.1013
     13.8527       0.1049
     14.3855       0.1085
     14.9183       0.1121
     15.4511       0.1158
     15.9839       0.1194
     16.5167       0.1230
     17.0495       0.1266
     17.5823       0.1303
     18.1151       0.1339
     18.6479       0.1375
     19.1807       0.1412
     19.7135       0.1448

EXERCÍCIO 02
 a = 305.00 mm
 b = 235.00 mm
 δ =   0.22 mm

EXERCÍCIO 03
 Item a
 b = 115.00 mm
