EXERCÍCIO 01
Teste Tração 01
 L0 = 100.00 mm
 d0 =  10.00 mm
 A  =  78.44 mm² (no limite de proporcionalidade)
  Carga [kN]  Desloc [mm]
      0.0000       0.0000
      0.5404       0.0038
      1.0807       0.0075
      1.6211       0.0113
      2.1614       0.0150
      2.7018       0.0188
      3.2421       0.0226
      3.7825       0.0263
      4.3228       0.0301
      4.8632       0.0338
      5.4035       0.0376
      5.9439       0.0414
      6.4842       0.0451
      7.0246       0.0489
      7.5650       0.0526
      8.1053       0.0564
      8.6457       0.0602
      9.1860       0.0639
      9.7264       0.0677
     10.2667       0.0714
     10.8071       0.0752
     11.3474       0.0790
     11.8878       0.0827
     12.4281       0.0865
     12.9685       0.0902
     13.5088       0.0940
     14.0492       0.0977
     14.5896       0.1015
     15.1299       0.1053
     15.6703       0.1090
     16.2106       0.1128
     16.7510       0.1165
     17.2913       0.1203
     17.8317       0.1241
     18.3720       0.1278
     18.9124       0.1316
     19.4527       0.1353
     19.9931       0.1391
     20.5334       0.1429
     21.0738       0.1466
     21.6142       0.1504
     22.1545       0.1541
     22.6949       0.1579
     23.2352       0.1617
     23.7756       0.1654
     24.3159       0.1692
     24.8563       0.1729
     25.3966       0.1767
     25.9370       0.1805
     26.4773       0.1842
     27.0177       0.1880

Teste Tração 02
 L0 = 100.00 mm
 d0 =  10.00 mm
  Carga [kN]  Desloc [mm]
      0.0000       0.0134
      0.7946       0.0189
      1.5893       0.0244
      2.3839       0.0299
      3.1786       0.0355
      3.9732       0.0410
      4.7678       0.0465
      5.5625       0.0521
      6.3571       0.0576
      7.1517       0.0631
      7.9464       0.0686
      8.7410       0.0742
      9.5357       0.0797
     10.3303       0.0852
     11.1249       0.0908
     11.9196       0.0963
     12.7142       0.1018
     13.5088       0.1073
     14.3035       0.1129
     15.0981       0.1184
     15.8928       0.1239
     16.6874       0.1295
     17.4820       0.1350
     18.2767       0.1405
     19.0713       0.1461
     19.8660       0.1516
     20.6606       0.1571
     21.4552       0.1626
     22.2499       0.1682
     23.0445       0.1737
     23.8391       0.1792
     24.6338       0.1848
     25.4284       0.1903
     26.2231       0.1958
     27.0177       0.2013

EXERCÍCIO 02
 a = 310.00 mm
 b = 255.00 mm
 δ =   0.06 mm

EXERCÍCIO 03
 Item a
 b =  90.00 mm
