EXERCÍCIO 01
Teste Tração 01
 L0 = 100.00 mm
 d0 =  10.00 mm
 A  =  78.45 mm² (no limite de proporcionalidade)
  Carga [kN]  Desloc [mm]
      0.0000       0.0000
      0.4465       0.0032
      0.8930       0.0063
      1.3395       0.0095
      1.7861       0.0126
      2.2326       0.0158
      2.6791       0.0190
      3.1256       0.0221
      3.5721       0.0253
      4.0186       0.0284
      4.4651       0.0316
      4.9116       0.0347
      5.3582       0.0379
      5.8047       0.0411
      6.2512       0.0442
      6.6977       0.0474
      7.1442       0.0505
      7.5907       0.0537
      8.0372       0.0569
      8.4838       0.0600
      8.9303       0.0632
      9.3768       0.0663
      9.8233       0.0695
     10.2698       0.0726
     10.7163       0.0758
     11.1628       0.0790
     11.6093       0.0821
     12.0559       0.0853
     12.5024       0.0884
     12.9489       0.0916
     13.3954       0.0948
     13.8419       0.0979
     14.2884       0.1011
     14.7349       0.1042
     15.1815       0.1074
     15.6280       0.1105
     16.0745       0.1137
     16.5210       0.1169
     16.9675       0.1200
     17.4140       0.1232
     17.8605       0.1263
     18.3070       0.1295
     18.7536       0.1327
     19.2001       0.1358
     19.6466       0.1390
     20.0931       0.1421
     20.5396       0.1453
     20.9861       0.1484
     21.4326       0.1516
     21.8792       0.1548
     22.3257       0.1579
     22.7722       0.1611
     23.2187       0.1642
     23.6652       0.1674
     24.1117       0.1706

Teste Tração 02
 L0 = 100.00 mm
 d0 =  10.00 mm
  Carga [kN]  Desloc [mm]
      0.0000       0.0127
      0.7307       0.0179
      1.4613       0.0231
      2.1920       0.0282
      2.9226       0.0334
      3.6533       0.0386
      4.3839       0.0437
      5.1146       0.0489
      5.8453       0.0541
      6.5759       0.0592
      7.3066       0.0644
      8.0372       0.0696
      8.7679       0.0747
      9.4986       0.0799
     10.2292       0.0851
     10.9599       0.0902
     11.6905       0.0954
     12.4212       0.1006
     13.1518       0.1058
     13.8825       0.1109
     14.6132       0.1161
     15.3438       0.1213
     16.0745       0.1264
     16.8051       0.1316
     17.5358       0.1368
     18.2665       0.1419
     18.9971       0.1471
     19.7278       0.1523
     20.4584       0.1574
     21.1891       0.1626
     21.9197       0.1678
     22.6504       0.1729
     23.3811       0.1781
     24.1117       0.1833

EXERCÍCIO 02
 a = 345.00 mm
 b = 265.00 mm
 δ =   0.07 mm

EXERCÍCIO 03
 Item a
 b = 130.00 mm
