EXERCÍCIO 01
Teste Tração 01
 L0 = 100.00 mm
 d0 =  10.00 mm
 A  =  78.48 mm² (no limite de proporcionalidade)
  Carga [kN]  Desloc [mm]
      0.0000       0.0000
      0.4270       0.0026
      0.8539       0.0052
      1.2809       0.0078
      1.7079       0.0105
      2.1349       0.0131
      2.5618       0.0157
      2.9888       0.0183
      3.4158       0.0209
      3.8427       0.0235
      4.2697       0.0261
      4.6967       0.0288
      5.1237       0.0314
      5.5506       0.0340
      5.9776       0.0366
      6.4046       0.0392
      6.8315       0.0418
      7.2585       0.0444
      7.6855       0.0470
      8.1124       0.0497
      8.5394       0.0523
      8.9664       0.0549
      9.3934       0.0575
      9.8203       0.0601
     10.2473       0.0627
     10.6743       0.0653
     11.1012       0.0680
     11.5282       0.0706
     11.9552       0.0732
     12.3822       0.0758
     12.8091       0.0784
     13.2361       0.0810
     13.6631       0.0836
     14.0900       0.0863
     14.5170       0.0889
     14.9440       0.0915
     15.3710       0.0941
     15.7979       0.0967
     16.2249       0.0993
     16.6519       0.1019
     17.0788       0.1045
     17.5058       0.1072
     17.9328       0.1098
     18.3598       0.1124
     18.7867       0.1150
     19.2137       0.1176
     19.6407       0.1202
     20.0676       0.1228
     20.4946       0.1255
     20.9216       0.1281
     21.3486       0.1307
     21.7755       0.1333
     22.2025       0.1359
     22.6295       0.1385
     23.0564       0.1411
     23.4834       0.1437

Teste Tração 02
 L0 = 100.00 mm
 d0 =  10.00 mm
  Carga [kN]  Desloc [mm]
      0.0000       0.0128
      0.6523       0.0168
      1.3046       0.0208
      1.9570       0.0248
      2.6093       0.0288
      3.2616       0.0328
      3.9139       0.0368
      4.5662       0.0408
      5.2185       0.0447
      5.8709       0.0487
      6.5232       0.0527
      7.1755       0.0567
      7.8278       0.0607
      8.4801       0.0647
      9.1324       0.0687
      9.7848       0.0727
     10.4371       0.0767
     11.0894       0.0807
     11.7417       0.0847
     12.3940       0.0887
     13.0463       0.0927
     13.6987       0.0967
     14.3510       0.1006
     15.0033       0.1046
     15.6556       0.1086
     16.3079       0.1126
     16.9602       0.1166
     17.6126       0.1206
     18.2649       0.1246
     18.9172       0.1286
     19.5695       0.1326
     20.2218       0.1366
     20.8741       0.1406
     21.5265       0.1446
     22.1788       0.1486
     22.8311       0.1526
     23.4834       0.1566

EXERCÍCIO 02
 a = 320.00 mm
 b = 265.00 mm
 δ =   0.28 mm

EXERCÍCIO 03
 Item a
 b = 100.00 mm
