EXERCÍCIO 01
Teste Tração 01
 L0 = 100.00 mm
 d0 =  10.00 mm
 A  =  78.44 mm² (no limite de proporcionalidade)
  Carga [kN]  Desloc [mm]
      0.0000       0.0000
      0.4374       0.0030
      0.8748       0.0061
      1.3122       0.0091
      1.7495       0.0122
      2.1869       0.0152
      2.6243       0.0183
      3.0617       0.0213
      3.4991       0.0243
      3.9365       0.0274
      4.3739       0.0304
      4.8112       0.0335
      5.2486       0.0365
      5.6860       0.0396
      6.1234       0.0426
      6.5608       0.0456
      6.9982       0.0487
      7.4356       0.0517
      7.8729       0.0548
      8.3103       0.0578
      8.7477       0.0609
      9.1851       0.0639
      9.6225       0.0669
     10.0599       0.0700
     10.4973       0.0730
     10.9346       0.0761
     11.3720       0.0791
     11.8094       0.0822
     12.2468       0.0852
     12.6842       0.0883
     13.1216       0.0913
     13.5590       0.0943
     13.9963       0.0974
     14.4337       0.1004
     14.8711       0.1035
     15.3085       0.1065
     15.7459       0.1096
     16.1833       0.1126
     16.6207       0.1156
     17.0580       0.1187
     17.4954       0.1217
     17.9328       0.1248
     18.3702       0.1278
     18.8076       0.1309
     19.2450       0.1339
     19.6823       0.1369
     20.1197       0.1400
     20.5571       0.1430
     20.9945       0.1461
     21.4319       0.1491
     21.8693       0.1522
     22.3067       0.1552
     22.7440       0.1582
     23.1814       0.1613
     23.6188       0.1643
     24.0562       0.1674
     24.4936       0.1704
     24.9310       0.1735
     25.3684       0.1765

Teste Tração 02
 L0 = 100.00 mm
 d0 =  10.00 mm
  Carga [kN]  Desloc [mm]
      0.0000       0.0097
      0.7047       0.0146
      1.4094       0.0195
      2.1140       0.0244
      2.8187       0.0293
      3.5234       0.0342
      4.2281       0.0391
      4.9327       0.0440
      5.6374       0.0489
      6.3421       0.0538
      7.0468       0.0587
      7.7514       0.0636
      8.4561       0.0685
      9.1608       0.0734
      9.8655       0.0783
     10.5702       0.0832
     11.2748       0.0881
     11.9795       0.0930
     12.6842       0.0979
     13.3889       0.1028
     14.0935       0.1077
     14.7982       0.1126
     15.5029       0.1175
     16.2076       0.1224
     16.9122       0.1273
     17.6169       0.1323
     18.3216       0.1372
     19.0263       0.1421
     19.7309       0.1470
     20.4356       0.1519
     21.1403       0.1568
     21.8450       0.1617
     22.5497       0.1666
     23.2543       0.1715
     23.9590       0.1764
     24.6637       0.1813
     25.3684       0.1862

EXERCÍCIO 02
 a = 315.00 mm
 b = 270.00 mm
 δ =   0.22 mm

EXERCÍCIO 03
 Item a
 b =  80.00 mm
