EXERCÍCIO 01
Teste Tração 01
 L0 = 100.00 mm
 d0 =  10.00 mm
 A  =  78.47 mm² (no limite de proporcionalidade)
  Carga [kN]  Desloc [mm]
      0.0000       0.0000
      0.4062       0.0026
      0.8125       0.0052
      1.2187       0.0078
      1.6250       0.0104
      2.0312       0.0131
      2.4374       0.0157
      2.8437       0.0183
      3.2499       0.0209
      3.6562       0.0235
      4.0624       0.0261
      4.4686       0.0287
      4.8749       0.0313
      5.2811       0.0340
      5.6874       0.0366
      6.0936       0.0392
      6.4998       0.0418
      6.9061       0.0444
      7.3123       0.0470
      7.7186       0.0496
      8.1248       0.0522
      8.5310       0.0549
      8.9373       0.0575
      9.3435       0.0601
      9.7498       0.0627
     10.1560       0.0653
     10.5623       0.0679
     10.9685       0.0705
     11.3747       0.0731
     11.7810       0.0758
     12.1872       0.0784
     12.5935       0.0810
     12.9997       0.0836
     13.4059       0.0862
     13.8122       0.0888
     14.2184       0.0914
     14.6247       0.0940
     15.0309       0.0967
     15.4371       0.0993
     15.8434       0.1019
     16.2496       0.1045
     16.6559       0.1071
     17.0621       0.1097
     17.4683       0.1123
     17.8746       0.1149
     18.2808       0.1176
     18.6871       0.1202
     19.0933       0.1228
     19.4995       0.1254
     19.9058       0.1280
     20.3120       0.1306
     20.7183       0.1332
     21.1245       0.1358
     21.5307       0.1385
     21.9370       0.1411
     22.3432       0.1437
     22.7495       0.1463
     23.1557       0.1489
     23.5619       0.1515

Teste Tração 02
 L0 = 100.00 mm
 d0 =  10.00 mm
  Carga [kN]  Desloc [mm]
      0.0000       0.0110
      0.7854       0.0160
      1.5708       0.0211
      2.3562       0.0261
      3.1416       0.0312
      3.9270       0.0362
      4.7124       0.0413
      5.4978       0.0463
      6.2832       0.0514
      7.0686       0.0564
      7.8540       0.0615
      8.6394       0.0665
      9.4248       0.0716
     10.2102       0.0766
     10.9956       0.0817
     11.7810       0.0867
     12.5664       0.0918
     13.3518       0.0968
     14.1372       0.1019
     14.9226       0.1069
     15.7080       0.1120
     16.4934       0.1170
     17.2788       0.1221
     18.0642       0.1271
     18.8496       0.1322
     19.6350       0.1372
     20.4204       0.1423
     21.2058       0.1473
     21.9911       0.1524
     22.7765       0.1574
     23.5619       0.1625

EXERCÍCIO 02
 a = 330.00 mm
 b = 230.00 mm
 δ =   0.23 mm

EXERCÍCIO 03
 Item a
 b = 110.00 mm
