EXERCÍCIO 01
Teste Tração 01
 L0 = 100.00 mm
 d0 =  10.00 mm
 A  =  78.46 mm² (no limite de proporcionalidade)
  Carga [kN]  Desloc [mm]
      0.0000       0.0000
      0.3741       0.0025
      0.7481       0.0051
      1.1222       0.0076
      1.4963       0.0101
      1.8703       0.0127
      2.2444       0.0152
      2.6184       0.0177
      2.9925       0.0203
      3.3666       0.0228
      3.7406       0.0253
      4.1147       0.0279
      4.4888       0.0304
      4.8628       0.0329
      5.2369       0.0355
      5.6109       0.0380
      5.9850       0.0405
      6.3591       0.0431
      6.7331       0.0456
      7.1072       0.0481
      7.4813       0.0507
      7.8553       0.0532
      8.2294       0.0557
      8.6034       0.0583
      8.9775       0.0608
      9.3516       0.0633
      9.7256       0.0659
     10.0997       0.0684
     10.4738       0.0709
     10.8478       0.0735
     11.2219       0.0760
     11.5959       0.0785
     11.9700       0.0811
     12.3441       0.0836
     12.7181       0.0861
     13.0922       0.0887
     13.4663       0.0912
     13.8403       0.0937
     14.2144       0.0963
     14.5884       0.0988
     14.9625       0.1013
     15.3366       0.1039
     15.7106       0.1064
     16.0847       0.1089
     16.4588       0.1115
     16.8328       0.1140
     17.2069       0.1165
     17.5809       0.1191
     17.9550       0.1216
     18.3291       0.1241
     18.7031       0.1267
     19.0772       0.1292
     19.4513       0.1317
     19.8253       0.1343
     20.1994       0.1368
     20.5734       0.1393
     20.9475       0.1419
     21.3216       0.1444
     21.6956       0.1469
     22.0697       0.1495

Teste Tração 02
 L0 = 100.00 mm
 d0 =  10.00 mm
  Carga [kN]  Desloc [mm]
      0.0000       0.0089
      0.7610       0.0140
      1.5220       0.0192
      2.2831       0.0243
      3.0441       0.0295
      3.8051       0.0347
      4.5661       0.0398
      5.3272       0.0450
      6.0882       0.0501
      6.8492       0.0553
      7.6102       0.0604
      8.3713       0.0656
      9.1323       0.0707
      9.8933       0.0759
     10.6543       0.0810
     11.4154       0.0862
     12.1764       0.0913
     12.9374       0.0965
     13.6984       0.1017
     14.4595       0.1068
     15.2205       0.1120
     15.9815       0.1171
     16.7425       0.1223
     17.5035       0.1274
     18.2646       0.1326
     19.0256       0.1377
     19.7866       0.1429
     20.5476       0.1480
     21.3087       0.1532
     22.0697       0.1583

EXERCÍCIO 02
 a = 330.00 mm
 b = 260.00 mm
 δ =   0.07 mm

EXERCÍCIO 03
 Item a
 b =  85.00 mm
