EXERCÍCIO 01
Teste Tração 01
 L0 = 100.00 mm
 d0 =  10.00 mm
 A  =  78.48 mm² (no limite de proporcionalidade)
  Carga [kN]  Desloc [mm]
      0.0000       0.0000
      0.3514       0.0022
      0.7027       0.0045
      1.0541       0.0067
      1.4054       0.0090
      1.7568       0.0112
      2.1082       0.0135
      2.4595       0.0157
      2.8109       0.0180
      3.1623       0.0202
      3.5136       0.0225
      3.8650       0.0247
      4.2163       0.0270
      4.5677       0.0292
      4.9191       0.0315
      5.2704       0.0337
      5.6218       0.0360
      5.9732       0.0382
      6.3245       0.0405
      6.6759       0.0427
      7.0272       0.0450
      7.3786       0.0472
      7.7300       0.0495
      8.0813       0.0517
      8.4327       0.0540
      8.7841       0.0562
      9.1354       0.0585
      9.4868       0.0607
      9.8381       0.0629
     10.1895       0.0652
     10.5409       0.0674
     10.8922       0.0697
     11.2436       0.0719
     11.5950       0.0742
     11.9463       0.0764
     12.2977       0.0787
     12.6490       0.0809
     13.0004       0.0832
     13.3518       0.0854
     13.7031       0.0877
     14.0545       0.0899
     14.4059       0.0922
     14.7572       0.0944
     15.1086       0.0967
     15.4599       0.0989
     15.8113       0.1012
     16.1627       0.1034
     16.5140       0.1057
     16.8654       0.1079
     17.2168       0.1102
     17.5681       0.1124
     17.9195       0.1147
     18.2708       0.1169
     18.6222       0.1191
     18.9736       0.1214
     19.3249       0.1236
     19.6763       0.1259
     20.0277       0.1281

Teste Tração 02
 L0 = 100.00 mm
 d0 =  10.00 mm
  Carga [kN]  Desloc [mm]
      0.0000       0.0134
      0.5413       0.0169
      1.0826       0.0204
      1.6239       0.0238
      2.1652       0.0273
      2.7064       0.0308
      3.2477       0.0342
      3.7890       0.0377
      4.3303       0.0411
      4.8716       0.0446
      5.4129       0.0481
      5.9542       0.0515
      6.4955       0.0550
      7.0367       0.0585
      7.5780       0.0619
      8.1193       0.0654
      8.6606       0.0689
      9.2019       0.0723
      9.7432       0.0758
     10.2845       0.0792
     10.8258       0.0827
     11.3670       0.0862
     11.9083       0.0896
     12.4496       0.0931
     12.9909       0.0966
     13.5322       0.1000
     14.0735       0.1035
     14.6148       0.1069
     15.1561       0.1104
     15.6973       0.1139
     16.2386       0.1173
     16.7799       0.1208
     17.3212       0.1243
     17.8625       0.1277
     18.4038       0.1312
     18.9451       0.1347
     19.4864       0.1381
     20.0277       0.1416

EXERCÍCIO 02
 a = 320.00 mm
 b = 235.00 mm
 δ =   0.19 mm

EXERCÍCIO 03
 Item b
 d =  95.00 mm
