EXERCÍCIO 01
Teste Tração 01
 L0 = 100.00 mm
 d0 =  10.00 mm
 A  =  78.48 mm² (no limite de proporcionalidade)
  Carga [kN]  Desloc [mm]
      0.0000       0.0000
      0.4374       0.0028
      0.8748       0.0055
      1.3122       0.0083
      1.7495       0.0110
      2.1869       0.0138
      2.6243       0.0165
      3.0617       0.0193
      3.4991       0.0221
      3.9365       0.0248
      4.3739       0.0276
      4.8112       0.0303
      5.2486       0.0331
      5.6860       0.0358
      6.1234       0.0386
      6.5608       0.0414
      6.9982       0.0441
      7.4356       0.0469
      7.8729       0.0496
      8.3103       0.0524
      8.7477       0.0551
      9.1851       0.0579
      9.6225       0.0607
     10.0599       0.0634
     10.4973       0.0662
     10.9346       0.0689
     11.3720       0.0717
     11.8094       0.0744
     12.2468       0.0772
     12.6842       0.0800
     13.1216       0.0827
     13.5590       0.0855
     13.9963       0.0882
     14.4337       0.0910
     14.8711       0.0937
     15.3085       0.0965
     15.7459       0.0992
     16.1833       0.1020
     16.6207       0.1048
     17.0580       0.1075
     17.4954       0.1103
     17.9328       0.1130
     18.3702       0.1158
     18.8076       0.1185
     19.2450       0.1213
     19.6823       0.1241
     20.1197       0.1268
     20.5571       0.1296
     20.9945       0.1323
     21.4319       0.1351
     21.8693       0.1378
     22.3067       0.1406
     22.7440       0.1434
     23.1814       0.1461
     23.6188       0.1489
     24.0562       0.1516
     24.4936       0.1544
     24.9310       0.1571
     25.3684       0.1599

Teste Tração 02
 L0 = 100.00 mm
 d0 =  10.00 mm
  Carga [kN]  Desloc [mm]
      0.0000       0.0100
      0.7928       0.0150
      1.5855       0.0200
      2.3783       0.0250
      3.1710       0.0300
      3.9638       0.0350
      4.7566       0.0400
      5.5493       0.0450
      6.3421       0.0500
      7.1349       0.0550
      7.9276       0.0600
      8.7204       0.0650
      9.5131       0.0700
     10.3059       0.0750
     11.0987       0.0800
     11.8914       0.0850
     12.6842       0.0900
     13.4769       0.0949
     14.2697       0.0999
     15.0625       0.1049
     15.8552       0.1099
     16.6480       0.1149
     17.4407       0.1199
     18.2335       0.1249
     19.0263       0.1299
     19.8190       0.1349
     20.6118       0.1399
     21.4046       0.1449
     22.1973       0.1499
     22.9901       0.1549
     23.7828       0.1599
     24.5756       0.1649
     25.3684       0.1699

EXERCÍCIO 02
 a = 320.00 mm
 b = 260.00 mm
 δ =   0.29 mm

EXERCÍCIO 03
 Item a
 b = 125.00 mm
