EXERCÍCIO 01
Teste Tração 01
 L0 = 100.00 mm
 d0 =  10.00 mm
 A  =  78.48 mm² (no limite de proporcionalidade)
  Carga [kN]  Desloc [mm]
      0.0000       0.0000
      0.3794       0.0025
      0.7587       0.0049
      1.1381       0.0074
      1.5174       0.0098
      1.8968       0.0123
      2.2762       0.0147
      2.6555       0.0172
      3.0349       0.0196
      3.4143       0.0221
      3.7936       0.0245
      4.1730       0.0270
      4.5523       0.0294
      4.9317       0.0319
      5.3111       0.0343
      5.6904       0.0368
      6.0698       0.0392
      6.4492       0.0417
      6.8285       0.0441
      7.2079       0.0466
      7.5872       0.0490
      7.9666       0.0515
      8.3460       0.0539
      8.7253       0.0564
      9.1047       0.0588
      9.4841       0.0613
      9.8634       0.0637
     10.2428       0.0662
     10.6221       0.0687
     11.0015       0.0711
     11.3809       0.0736
     11.7602       0.0760
     12.1396       0.0785
     12.5190       0.0809
     12.8983       0.0834
     13.2777       0.0858
     13.6570       0.0883
     14.0364       0.0907
     14.4158       0.0932
     14.7951       0.0956
     15.1745       0.0981
     15.5538       0.1005
     15.9332       0.1030
     16.3126       0.1054
     16.6919       0.1079
     17.0713       0.1103
     17.4507       0.1128
     17.8300       0.1152
     18.2094       0.1177
     18.5887       0.1201
     18.9681       0.1226
     19.3475       0.1250
     19.7268       0.1275
     20.1062       0.1299

Teste Tração 02
 L0 = 100.00 mm
 d0 =  10.00 mm
  Carga [kN]  Desloc [mm]
      0.0000       0.0122
      0.5585       0.0158
      1.1170       0.0194
      1.6755       0.0230
      2.2340       0.0266
      2.7925       0.0302
      3.3510       0.0338
      3.9095       0.0374
      4.4680       0.0410
      5.0265       0.0446
      5.5851       0.0483
      6.1436       0.0519
      6.7021       0.0555
      7.2606       0.0591
      7.8191       0.0627
      8.3776       0.0663
      8.9361       0.0699
      9.4946       0.0735
     10.0531       0.0771
     10.6116       0.0807
     11.1701       0.0844
     11.7286       0.0880
     12.2871       0.0916
     12.8456       0.0952
     13.4041       0.0988
     13.9626       0.1024
     14.5211       0.1060
     15.0796       0.1096
     15.6382       0.1132
     16.1967       0.1168
     16.7552       0.1205
     17.3137       0.1241
     17.8722       0.1277
     18.4307       0.1313
     18.9892       0.1349
     19.5477       0.1385
     20.1062       0.1421

EXERCÍCIO 02
 a = 315.00 mm
 b = 270.00 mm
 δ =   0.29 mm

EXERCÍCIO 03
 Item a
 b = 150.00 mm
