EXERCÍCIO 01
Teste Tração 01
 L0 = 100.00 mm
 d0 =  10.00 mm
 A  =  78.45 mm² (no limite de proporcionalidade)
  Carga [kN]  Desloc [mm]
      0.0000       0.0000
      0.4820       0.0031
      0.9640       0.0061
      1.4461       0.0092
      1.9281       0.0122
      2.4101       0.0153
      2.8921       0.0183
      3.3741       0.0214
      3.8562       0.0244
      4.3382       0.0275
      4.8202       0.0305
      5.3022       0.0336
      5.7842       0.0366
      6.2662       0.0397
      6.7483       0.0427
      7.2303       0.0458
      7.7123       0.0489
      8.1943       0.0519
      8.6763       0.0550
      9.1584       0.0580
      9.6404       0.0611
     10.1224       0.0641
     10.6044       0.0672
     11.0864       0.0702
     11.5685       0.0733
     12.0505       0.0763
     12.5325       0.0794
     13.0145       0.0824
     13.4965       0.0855
     13.9785       0.0885
     14.4606       0.0916
     14.9426       0.0947
     15.4246       0.0977
     15.9066       0.1008
     16.3886       0.1038
     16.8707       0.1069
     17.3527       0.1099
     17.8347       0.1130
     18.3167       0.1160
     18.7987       0.1191
     19.2808       0.1221
     19.7628       0.1252
     20.2448       0.1282
     20.7268       0.1313
     21.2088       0.1343
     21.6908       0.1374
     22.1729       0.1405
     22.6549       0.1435
     23.1369       0.1466
     23.6189       0.1496
     24.1009       0.1527
     24.5830       0.1557

Teste Tração 02
 L0 = 100.00 mm
 d0 =  10.00 mm
  Carga [kN]  Desloc [mm]
      0.0000       0.0088
      0.6303       0.0128
      1.2607       0.0168
      1.8910       0.0208
      2.5213       0.0248
      3.1517       0.0288
      3.7820       0.0328
      4.4123       0.0367
      5.0427       0.0407
      5.6730       0.0447
      6.3033       0.0487
      6.9337       0.0527
      7.5640       0.0567
      8.1943       0.0607
      8.8247       0.0647
      9.4550       0.0687
     10.0853       0.0727
     10.7157       0.0767
     11.3460       0.0807
     11.9763       0.0847
     12.6066       0.0887
     13.2370       0.0926
     13.8673       0.0966
     14.4976       0.1006
     15.1280       0.1046
     15.7583       0.1086
     16.3886       0.1126
     17.0190       0.1166
     17.6493       0.1206
     18.2796       0.1246
     18.9100       0.1286
     19.5403       0.1326
     20.1706       0.1366
     20.8010       0.1406
     21.4313       0.1446
     22.0616       0.1485
     22.6920       0.1525
     23.3223       0.1565
     23.9526       0.1605
     24.5830       0.1645

EXERCÍCIO 02
 a = 320.00 mm
 b = 255.00 mm
 δ =   0.19 mm

EXERCÍCIO 03
 Item a
 b =  90.00 mm
