EXERCÍCIO 01
Teste Tração 01
 L0 = 100.00 mm
 d0 =  10.00 mm
 A  =  78.47 mm² (no limite de proporcionalidade)
  Carga [kN]  Desloc [mm]
      0.0000       0.0000
      0.3846       0.0026
      0.7691       0.0053
      1.1537       0.0079
      1.5383       0.0106
      1.9229       0.0132
      2.3074       0.0159
      2.6920       0.0185
      3.0766       0.0212
      3.4612       0.0238
      3.8457       0.0265
      4.2303       0.0291
      4.6149       0.0318
      4.9995       0.0344
      5.3840       0.0371
      5.7686       0.0397
      6.1532       0.0423
      6.5378       0.0450
      6.9223       0.0476
      7.3069       0.0503
      7.6915       0.0529
      8.0761       0.0556
      8.4606       0.0582
      8.8452       0.0609
      9.2298       0.0635
      9.6144       0.0662
      9.9989       0.0688
     10.3835       0.0715
     10.7681       0.0741
     11.1527       0.0768
     11.5372       0.0794
     11.9218       0.0821
     12.3064       0.0847
     12.6910       0.0873
     13.0755       0.0900
     13.4601       0.0926
     13.8447       0.0953
     14.2292       0.0979
     14.6138       0.1006
     14.9984       0.1032
     15.3830       0.1059
     15.7675       0.1085
     16.1521       0.1112
     16.5367       0.1138
     16.9213       0.1165
     17.3058       0.1191
     17.6904       0.1218
     18.0750       0.1244
     18.4596       0.1270
     18.8441       0.1297
     19.2287       0.1323
     19.6133       0.1350
     19.9979       0.1376
     20.3824       0.1403
     20.7670       0.1429
     21.1516       0.1456
     21.5362       0.1482
     21.9207       0.1509
     22.3053       0.1535

Teste Tração 02
 L0 = 100.00 mm
 d0 =  10.00 mm
  Carga [kN]  Desloc [mm]
      0.0000       0.0090
      0.5719       0.0129
      1.1439       0.0168
      1.7158       0.0208
      2.2877       0.0247
      2.8597       0.0286
      3.4316       0.0326
      4.0035       0.0365
      4.5754       0.0404
      5.1474       0.0444
      5.7193       0.0483
      6.2912       0.0523
      6.8632       0.0562
      7.4351       0.0601
      8.0070       0.0641
      8.5790       0.0680
      9.1509       0.0719
      9.7228       0.0759
     10.2948       0.0798
     10.8667       0.0837
     11.4386       0.0877
     12.0106       0.0916
     12.5825       0.0956
     13.1544       0.0995
     13.7263       0.1034
     14.2983       0.1074
     14.8702       0.1113
     15.4421       0.1152
     16.0141       0.1192
     16.5860       0.1231
     17.1579       0.1270
     17.7299       0.1310
     18.3018       0.1349
     18.8737       0.1389
     19.4457       0.1428
     20.0176       0.1467
     20.5895       0.1507
     21.1614       0.1546
     21.7334       0.1585
     22.3053       0.1625

EXERCÍCIO 02
 a = 310.00 mm
 b = 235.00 mm
 δ =   0.22 mm

EXERCÍCIO 03
 Item b
 d =  80.00 mm
