EXERCÍCIO 01
Teste Tração 01
 L0 = 100.00 mm
 d0 =  10.00 mm
 A  =  78.46 mm² (no limite de proporcionalidade)
  Carga [kN]  Desloc [mm]
      0.0000       0.0000
      0.4087       0.0027
      0.8174       0.0055
      1.2261       0.0082
      1.6348       0.0110
      2.0435       0.0137
      2.4522       0.0164
      2.8609       0.0192
      3.2696       0.0219
      3.6783       0.0246
      4.0870       0.0274
      4.4957       0.0301
      4.9044       0.0329
      5.3131       0.0356
      5.7218       0.0383
      6.1305       0.0411
      6.5392       0.0438
      6.9479       0.0466
      7.3566       0.0493
      7.7653       0.0520
      8.1740       0.0548
      8.5827       0.0575
      8.9914       0.0603
      9.4001       0.0630
      9.8088       0.0657
     10.2174       0.0685
     10.6261       0.0712
     11.0348       0.0739
     11.4435       0.0767
     11.8522       0.0794
     12.2609       0.0822
     12.6696       0.0849
     13.0783       0.0876
     13.4870       0.0904
     13.8957       0.0931
     14.3044       0.0959
     14.7131       0.0986
     15.1218       0.1013
     15.5305       0.1041
     15.9392       0.1068
     16.3479       0.1096
     16.7566       0.1123
     17.1653       0.1150
     17.5740       0.1178
     17.9827       0.1205
     18.3914       0.1232
     18.8001       0.1260
     19.2088       0.1287
     19.6175       0.1315
     20.0262       0.1342
     20.4349       0.1369
     20.8436       0.1397
     21.2523       0.1424
     21.6610       0.1452
     22.0697       0.1479

Teste Tração 02
 L0 = 100.00 mm
 d0 =  10.00 mm
  Carga [kN]  Desloc [mm]
      0.0000       0.0097
      0.6897       0.0143
      1.3794       0.0189
      2.0690       0.0235
      2.7587       0.0282
      3.4484       0.0328
      4.1381       0.0374
      4.8277       0.0420
      5.5174       0.0467
      6.2071       0.0513
      6.8968       0.0559
      7.5865       0.0605
      8.2761       0.0651
      8.9658       0.0698
      9.6555       0.0744
     10.3452       0.0790
     11.0348       0.0836
     11.7245       0.0882
     12.4142       0.0929
     13.1039       0.0975
     13.7936       0.1021
     14.4832       0.1067
     15.1729       0.1114
     15.8626       0.1160
     16.5523       0.1206
     17.2419       0.1252
     17.9316       0.1298
     18.6213       0.1345
     19.3110       0.1391
     20.0007       0.1437
     20.6903       0.1483
     21.3800       0.1530
     22.0697       0.1576

EXERCÍCIO 02
 a = 325.00 mm
 b = 255.00 mm
 δ =   0.29 mm

EXERCÍCIO 03
 Item a
 b = 130.00 mm
