EXERCÍCIO 01
Teste Tração 01
 L0 = 100.00 mm
 d0 =  10.00 mm
 A  =  78.44 mm² (no limite de proporcionalidade)
  Carga [kN]  Desloc [mm]
      0.0000       0.0000
      0.5246       0.0037
      1.0493       0.0074
      1.5739       0.0111
      2.0986       0.0148
      2.6232       0.0185
      3.1479       0.0221
      3.6725       0.0258
      4.1972       0.0295
      4.7218       0.0332
      5.2465       0.0369
      5.7711       0.0406
      6.2958       0.0443
      6.8204       0.0480
      7.3450       0.0517
      7.8697       0.0554
      8.3943       0.0590
      8.9190       0.0627
      9.4436       0.0664
      9.9683       0.0701
     10.4929       0.0738
     11.0176       0.0775
     11.5422       0.0812
     12.0669       0.0849
     12.5915       0.0886
     13.1161       0.0923
     13.6408       0.0960
     14.1654       0.0996
     14.6901       0.1033
     15.2147       0.1070
     15.7394       0.1107
     16.2640       0.1144
     16.7887       0.1181
     17.3133       0.1218
     17.8380       0.1255
     18.3626       0.1292
     18.8873       0.1329
     19.4119       0.1366
     19.9365       0.1402
     20.4612       0.1439
     20.9858       0.1476
     21.5105       0.1513
     22.0351       0.1550
     22.5598       0.1587
     23.0844       0.1624
     23.6091       0.1661
     24.1337       0.1698
     24.6584       0.1735
     25.1830       0.1771
     25.7077       0.1808
     26.2323       0.1845

Teste Tração 02
 L0 = 100.00 mm
 d0 =  10.00 mm
  Carga [kN]  Desloc [mm]
      0.0000       0.0101
      0.7287       0.0152
      1.4573       0.0203
      2.1860       0.0255
      2.9147       0.0306
      3.6434       0.0357
      4.3720       0.0408
      5.1007       0.0460
      5.8294       0.0511
      6.5581       0.0562
      7.2867       0.0613
      8.0154       0.0665
      8.7441       0.0716
      9.4728       0.0767
     10.2014       0.0818
     10.9301       0.0870
     11.6588       0.0921
     12.3875       0.0972
     13.1161       0.1023
     13.8448       0.1075
     14.5735       0.1126
     15.3022       0.1177
     16.0308       0.1228
     16.7595       0.1280
     17.4882       0.1331
     18.2169       0.1382
     18.9455       0.1434
     19.6742       0.1485
     20.4029       0.1536
     21.1316       0.1587
     21.8602       0.1639
     22.5889       0.1690
     23.3176       0.1741
     24.0463       0.1792
     24.7749       0.1844
     25.5036       0.1895
     26.2323       0.1946

EXERCÍCIO 02
 a = 315.00 mm
 b = 270.00 mm
 δ =   0.27 mm

EXERCÍCIO 03
 Item a
 b =  85.00 mm
