EXERCÍCIO 01
Teste Tração 01
 L0 = 100.00 mm
 d0 =  10.00 mm
 A  =  78.48 mm² (no limite de proporcionalidade)
  Carga [kN]  Desloc [mm]
      0.0000       0.0000
      0.3734       0.0023
      0.7469       0.0045
      1.1203       0.0068
      1.4937       0.0091
      1.8672       0.0114
      2.2406       0.0136
      2.6140       0.0159
      2.9875       0.0182
      3.3609       0.0205
      3.7343       0.0227
      4.1078       0.0250
      4.4812       0.0273
      4.8546       0.0296
      5.2281       0.0318
      5.6015       0.0341
      5.9750       0.0364
      6.3484       0.0387
      6.7218       0.0409
      7.0953       0.0432
      7.4687       0.0455
      7.8421       0.0478
      8.2156       0.0500
      8.5890       0.0523
      8.9624       0.0546
      9.3359       0.0569
      9.7093       0.0591
     10.0827       0.0614
     10.4562       0.0637
     10.8296       0.0660
     11.2030       0.0682
     11.5765       0.0705
     11.9499       0.0728
     12.3233       0.0751
     12.6968       0.0773
     13.0702       0.0796
     13.4436       0.0819
     13.8171       0.0842
     14.1905       0.0864
     14.5639       0.0887
     14.9374       0.0910
     15.3108       0.0933
     15.6843       0.0955
     16.0577       0.0978
     16.4311       0.1001
     16.8046       0.1024
     17.1780       0.1046
     17.5514       0.1069
     17.9249       0.1092
     18.2983       0.1115
     18.6717       0.1137
     19.0452       0.1160
     19.4186       0.1183
     19.7920       0.1206

Teste Tração 02
 L0 = 100.00 mm
 d0 =  10.00 mm
  Carga [kN]  Desloc [mm]
      0.0000       0.0116
      0.6825       0.0158
      1.3650       0.0199
      2.0475       0.0241
      2.7299       0.0282
      3.4124       0.0324
      4.0949       0.0365
      4.7774       0.0407
      5.4599       0.0449
      6.1424       0.0490
      6.8248       0.0532
      7.5073       0.0573
      8.1898       0.0615
      8.8723       0.0657
      9.5548       0.0698
     10.2373       0.0740
     10.9197       0.0781
     11.6022       0.0823
     12.2847       0.0864
     12.9672       0.0906
     13.6497       0.0948
     14.3322       0.0989
     15.0146       0.1031
     15.6971       0.1072
     16.3796       0.1114
     17.0621       0.1155
     17.7446       0.1197
     18.4271       0.1239
     19.1095       0.1280
     19.7920       0.1322

EXERCÍCIO 02
 a = 340.00 mm
 b = 280.00 mm
 δ =   0.17 mm

EXERCÍCIO 03
 Item a
 b = 120.00 mm
