EXERCÍCIO 01
Teste Tração 01
 L0 = 100.00 mm
 d0 =  10.00 mm
 A  =  78.48 mm² (no limite de proporcionalidade)
  Carga [kN]  Desloc [mm]
      0.0000       0.0000
      0.3651       0.0025
      0.7303       0.0050
      1.0954       0.0075
      1.4606       0.0099
      1.8257       0.0124
      2.1908       0.0149
      2.5560       0.0174
      2.9211       0.0199
      3.2863       0.0224
      3.6514       0.0249
      4.0166       0.0273
      4.3817       0.0298
      4.7468       0.0323
      5.1120       0.0348
      5.4771       0.0373
      5.8423       0.0398
      6.2074       0.0423
      6.5725       0.0448
      6.9377       0.0472
      7.3028       0.0497
      7.6680       0.0522
      8.0331       0.0547
      8.3982       0.0572
      8.7634       0.0597
      9.1285       0.0622
      9.4937       0.0646
      9.8588       0.0671
     10.2240       0.0696
     10.5891       0.0721
     10.9542       0.0746
     11.3194       0.0771
     11.6845       0.0796
     12.0497       0.0820
     12.4148       0.0845
     12.7799       0.0870
     13.1451       0.0895
     13.5102       0.0920
     13.8754       0.0945
     14.2405       0.0970
     14.6057       0.0994
     14.9708       0.1019
     15.3359       0.1044
     15.7011       0.1069
     16.0662       0.1094
     16.4314       0.1119
     16.7965       0.1144
     17.1616       0.1168
     17.5268       0.1193
     17.8919       0.1218
     18.2571       0.1243
     18.6222       0.1268
     18.9873       0.1293
     19.3525       0.1318
     19.7176       0.1343
     20.0828       0.1367
     20.4479       0.1392
     20.8131       0.1417

Teste Tração 02
 L0 = 100.00 mm
 d0 =  10.00 mm
  Carga [kN]  Desloc [mm]
      0.0000       0.0141
      0.6307       0.0184
      1.2614       0.0227
      1.8921       0.0270
      2.5228       0.0313
      3.1535       0.0356
      3.7842       0.0398
      4.4149       0.0441
      5.0456       0.0484
      5.6763       0.0527
      6.3070       0.0570
      6.9377       0.0613
      7.5684       0.0656
      8.1991       0.0699
      8.8298       0.0742
      9.4605       0.0785
     10.0912       0.0828
     10.7219       0.0871
     11.3526       0.0914
     11.9833       0.0957
     12.6140       0.1000
     13.2447       0.1043
     13.8754       0.1086
     14.5061       0.1128
     15.1368       0.1171
     15.7675       0.1214
     16.3982       0.1257
     17.0289       0.1300
     17.6596       0.1343
     18.2903       0.1386
     18.9210       0.1429
     19.5517       0.1472
     20.1824       0.1515
     20.8131       0.1558

EXERCÍCIO 02
 a = 300.00 mm
 b = 270.00 mm
 δ =   0.30 mm

EXERCÍCIO 03
 Item b
 d =  80.00 mm
