EXERCÍCIO 01
Teste Tração 01
 L0 = 100.00 mm
 d0 =  10.00 mm
 A  =  78.47 mm² (no limite de proporcionalidade)
  Carga [kN]  Desloc [mm]
      0.0000       0.0000
      0.4344       0.0028
      0.8687       0.0056
      1.3031       0.0083
      1.7375       0.0111
      2.1719       0.0139
      2.6062       0.0167
      3.0406       0.0195
      3.4750       0.0222
      3.9094       0.0250
      4.3437       0.0278
      4.7781       0.0306
      5.2125       0.0334
      5.6469       0.0361
      6.0812       0.0389
      6.5156       0.0417
      6.9500       0.0445
      7.3843       0.0472
      7.8187       0.0500
      8.2531       0.0528
      8.6875       0.0556
      9.1218       0.0584
      9.5562       0.0611
      9.9906       0.0639
     10.4250       0.0667
     10.8593       0.0695
     11.2937       0.0723
     11.7281       0.0750
     12.1625       0.0778
     12.5968       0.0806
     13.0312       0.0834
     13.4656       0.0862
     13.8999       0.0889
     14.3343       0.0917
     14.7687       0.0945
     15.2031       0.0973
     15.6374       0.1001
     16.0718       0.1028
     16.5062       0.1056
     16.9406       0.1084
     17.3749       0.1112
     17.8093       0.1139
     18.2437       0.1167
     18.6781       0.1195
     19.1124       0.1223
     19.5468       0.1251
     19.9812       0.1278
     20.4155       0.1306
     20.8499       0.1334
     21.2843       0.1362

Teste Tração 02
 L0 = 100.00 mm
 d0 =  10.00 mm
  Carga [kN]  Desloc [mm]
      0.0000       0.0133
      0.6081       0.0172
      1.2162       0.0211
      1.8244       0.0250
      2.4325       0.0288
      3.0406       0.0327
      3.6487       0.0366
      4.2569       0.0405
      4.8650       0.0444
      5.4731       0.0483
      6.0812       0.0522
      6.6893       0.0561
      7.2975       0.0600
      7.9056       0.0639
      8.5137       0.0678
      9.1218       0.0716
      9.7300       0.0755
     10.3381       0.0794
     10.9462       0.0833
     11.5543       0.0872
     12.1625       0.0911
     12.7706       0.0950
     13.3787       0.0989
     13.9868       0.1028
     14.5949       0.1067
     15.2031       0.1106
     15.8112       0.1144
     16.4193       0.1183
     17.0274       0.1222
     17.6356       0.1261
     18.2437       0.1300
     18.8518       0.1339
     19.4599       0.1378
     20.0680       0.1417
     20.6762       0.1456
     21.2843       0.1495

EXERCÍCIO 02
 a = 315.00 mm
 b = 275.00 mm
 δ =   0.23 mm

EXERCÍCIO 03
 Item b
 d =  95.00 mm
