EXERCÍCIO 01
Teste Tração 01
 L0 = 100.00 mm
 d0 =  10.00 mm
 A  =  78.47 mm² (no limite de proporcionalidade)
  Carga [kN]  Desloc [mm]
      0.0000       0.0000
      0.4472       0.0031
      0.8944       0.0062
      1.3416       0.0093
      1.7888       0.0124
      2.2360       0.0156
      2.6832       0.0187
      3.1304       0.0218
      3.5776       0.0249
      4.0248       0.0280
      4.4720       0.0311
      4.9192       0.0342
      5.3664       0.0373
      5.8135       0.0404
      6.2607       0.0436
      6.7079       0.0467
      7.1551       0.0498
      7.6023       0.0529
      8.0495       0.0560
      8.4967       0.0591
      8.9439       0.0622
      9.3911       0.0653
      9.8383       0.0685
     10.2855       0.0716
     10.7327       0.0747
     11.1799       0.0778
     11.6271       0.0809
     12.0743       0.0840
     12.5215       0.0871
     12.9687       0.0902
     13.4159       0.0933
     13.8631       0.0965
     14.3103       0.0996
     14.7575       0.1027
     15.2047       0.1058
     15.6519       0.1089
     16.0991       0.1120
     16.5463       0.1151
     16.9935       0.1182
     17.4406       0.1213
     17.8878       0.1245
     18.3350       0.1276
     18.7822       0.1307
     19.2294       0.1338
     19.6766       0.1369
     20.1238       0.1400
     20.5710       0.1431
     21.0182       0.1462
     21.4654       0.1493
     21.9126       0.1525

Teste Tração 02
 L0 = 100.00 mm
 d0 =  10.00 mm
  Carga [kN]  Desloc [mm]
      0.0000       0.0111
      0.5922       0.0152
      1.1845       0.0194
      1.7767       0.0235
      2.3689       0.0276
      2.9612       0.0317
      3.5534       0.0358
      4.1456       0.0400
      4.7379       0.0441
      5.3301       0.0482
      5.9223       0.0523
      6.5146       0.0564
      7.1068       0.0606
      7.6990       0.0647
      8.2913       0.0688
      8.8835       0.0729
      9.4757       0.0770
     10.0680       0.0812
     10.6602       0.0853
     11.2524       0.0894
     11.8447       0.0935
     12.4369       0.0977
     13.0291       0.1018
     13.6214       0.1059
     14.2136       0.1100
     14.8058       0.1141
     15.3980       0.1183
     15.9903       0.1224
     16.5825       0.1265
     17.1747       0.1306
     17.7670       0.1347
     18.3592       0.1389
     18.9514       0.1430
     19.5437       0.1471
     20.1359       0.1512
     20.7281       0.1553
     21.3204       0.1595
     21.9126       0.1636

EXERCÍCIO 02
 a = 325.00 mm
 b = 275.00 mm
 δ =   0.20 mm

EXERCÍCIO 03
 Item a
 b = 130.00 mm
