EXERCÍCIO 01
Teste Tração 01
 L0 = 100.00 mm
 d0 =  10.00 mm
 A  =  78.47 mm² (no limite de proporcionalidade)
  Carga [kN]  Desloc [mm]
      0.0000       0.0000
      0.4374       0.0027
      0.8747       0.0053
      1.3121       0.0080
      1.7494       0.0107
      2.1868       0.0133
      2.6242       0.0160
      3.0615       0.0187
      3.4989       0.0213
      3.9362       0.0240
      4.3736       0.0266
      4.8109       0.0293
      5.2483       0.0320
      5.6857       0.0346
      6.1230       0.0373
      6.5604       0.0400
      6.9977       0.0426
      7.4351       0.0453
      7.8725       0.0480
      8.3098       0.0506
      8.7472       0.0533
      9.1845       0.0560
      9.6219       0.0586
     10.0593       0.0613
     10.4966       0.0639
     10.9340       0.0666
     11.3713       0.0693
     11.8087       0.0719
     12.2461       0.0746
     12.6834       0.0773
     13.1208       0.0799
     13.5581       0.0826
     13.9955       0.0853
     14.4328       0.0879
     14.8702       0.0906
     15.3076       0.0933
     15.7449       0.0959
     16.1823       0.0986
     16.6196       0.1012
     17.0570       0.1039
     17.4944       0.1066
     17.9317       0.1092
     18.3691       0.1119
     18.8064       0.1146
     19.2438       0.1172
     19.6812       0.1199
     20.1185       0.1226
     20.5559       0.1252
     20.9932       0.1279
     21.4306       0.1306
     21.8679       0.1332
     22.3053       0.1359

Teste Tração 02
 L0 = 100.00 mm
 d0 =  10.00 mm
  Carga [kN]  Desloc [mm]
      0.0000       0.0135
      0.7691       0.0182
      1.5383       0.0229
      2.3074       0.0276
      3.0766       0.0323
      3.8457       0.0369
      4.6149       0.0416
      5.3840       0.0463
      6.1532       0.0510
      6.9223       0.0557
      7.6915       0.0604
      8.4606       0.0651
      9.2298       0.0697
      9.9989       0.0744
     10.7681       0.0791
     11.5372       0.0838
     12.3064       0.0885
     13.0755       0.0932
     13.8447       0.0979
     14.6138       0.1025
     15.3830       0.1072
     16.1521       0.1119
     16.9213       0.1166
     17.6904       0.1213
     18.4596       0.1260
     19.2287       0.1307
     19.9979       0.1353
     20.7670       0.1400
     21.5362       0.1447
     22.3053       0.1494

EXERCÍCIO 02
 a = 320.00 mm
 b = 270.00 mm
 δ =   0.08 mm

EXERCÍCIO 03
 Item b
 d = 105.00 mm
