EXERCÍCIO 01
Teste Tração 01
 L0 = 100.00 mm
 d0 =  10.00 mm
 A  =  78.47 mm² (no limite de proporcionalidade)
  Carga [kN]  Desloc [mm]
      0.0000       0.0000
      0.4120       0.0028
      0.8239       0.0056
      1.2359       0.0084
      1.6479       0.0112
      2.0598       0.0140
      2.4718       0.0167
      2.8837       0.0195
      3.2957       0.0223
      3.7077       0.0251
      4.1196       0.0279
      4.5316       0.0307
      4.9436       0.0335
      5.3555       0.0363
      5.7675       0.0391
      6.1795       0.0419
      6.5914       0.0446
      7.0034       0.0474
      7.4153       0.0502
      7.8273       0.0530
      8.2393       0.0558
      8.6512       0.0586
      9.0632       0.0614
      9.4752       0.0642
      9.8871       0.0670
     10.2991       0.0698
     10.7111       0.0725
     11.1230       0.0753
     11.5350       0.0781
     11.9469       0.0809
     12.3589       0.0837
     12.7709       0.0865
     13.1828       0.0893
     13.5948       0.0921
     14.0068       0.0949
     14.4187       0.0977
     14.8307       0.1004
     15.2427       0.1032
     15.6546       0.1060
     16.0666       0.1088
     16.4785       0.1116
     16.8905       0.1144
     17.3025       0.1172
     17.7144       0.1200
     18.1264       0.1228
     18.5384       0.1256
     18.9503       0.1283
     19.3623       0.1311
     19.7743       0.1339
     20.1862       0.1367
     20.5982       0.1395
     21.0101       0.1423
     21.4221       0.1451
     21.8341       0.1479

Teste Tração 02
 L0 = 100.00 mm
 d0 =  10.00 mm
  Carga [kN]  Desloc [mm]
      0.0000       0.0108
      0.5746       0.0147
      1.1492       0.0186
      1.7237       0.0225
      2.2983       0.0264
      2.8729       0.0303
      3.4475       0.0341
      4.0221       0.0380
      4.5966       0.0419
      5.1712       0.0458
      5.7458       0.0497
      6.3204       0.0536
      6.8950       0.0575
      7.4695       0.0614
      8.0441       0.0653
      8.6187       0.0692
      9.1933       0.0731
      9.7679       0.0770
     10.3425       0.0808
     10.9170       0.0847
     11.4916       0.0886
     12.0662       0.0925
     12.6408       0.0964
     13.2154       0.1003
     13.7899       0.1042
     14.3645       0.1081
     14.9391       0.1120
     15.5137       0.1159
     16.0883       0.1198
     16.6628       0.1236
     17.2374       0.1275
     17.8120       0.1314
     18.3866       0.1353
     18.9612       0.1392
     19.5357       0.1431
     20.1103       0.1470
     20.6849       0.1509
     21.2595       0.1548
     21.8341       0.1587

EXERCÍCIO 02
 a = 325.00 mm
 b = 265.00 mm
 δ =   0.20 mm

EXERCÍCIO 03
 Item a
 b =  80.00 mm
