EXERCÍCIO 01
Teste Tração 01
 L0 = 100.00 mm
 d0 =  10.00 mm
 A  =  78.48 mm² (no limite de proporcionalidade)
  Carga [kN]  Desloc [mm]
      0.0000       0.0000
      0.3575       0.0022
      0.7150       0.0045
      1.0725       0.0067
      1.4300       0.0089
      1.7875       0.0112
      2.1449       0.0134
      2.5024       0.0156
      2.8599       0.0178
      3.2174       0.0201
      3.5749       0.0223
      3.9324       0.0245
      4.2899       0.0268
      4.6474       0.0290
      5.0049       0.0312
      5.3624       0.0335
      5.7199       0.0357
      6.0774       0.0379
      6.4348       0.0402
      6.7923       0.0424
      7.1498       0.0446
      7.5073       0.0469
      7.8648       0.0491
      8.2223       0.0513
      8.5798       0.0535
      8.9373       0.0558
      9.2948       0.0580
      9.6523       0.0602
     10.0098       0.0625
     10.3673       0.0647
     10.7247       0.0669
     11.0822       0.0692
     11.4397       0.0714
     11.7972       0.0736
     12.1547       0.0759
     12.5122       0.0781
     12.8697       0.0803
     13.2272       0.0826
     13.5847       0.0848
     13.9422       0.0870
     14.2997       0.0892
     14.6572       0.0915
     15.0146       0.0937
     15.3721       0.0959
     15.7296       0.0982
     16.0871       0.1004
     16.4446       0.1026
     16.8021       0.1049
     17.1596       0.1071
     17.5171       0.1093
     17.8746       0.1116
     18.2321       0.1138
     18.5896       0.1160
     18.9471       0.1183
     19.3045       0.1205
     19.6620       0.1227
     20.0195       0.1249
     20.3770       0.1272
     20.7345       0.1294

Teste Tração 02
 L0 = 100.00 mm
 d0 =  10.00 mm
  Carga [kN]  Desloc [mm]
      0.0000       0.0110
      0.5604       0.0145
      1.1208       0.0180
      1.6812       0.0215
      2.2416       0.0250
      2.8020       0.0285
      3.3624       0.0320
      3.9227       0.0355
      4.4831       0.0390
      5.0435       0.0425
      5.6039       0.0460
      6.1643       0.0495
      6.7247       0.0530
      7.2851       0.0565
      7.8455       0.0600
      8.4059       0.0635
      8.9663       0.0670
      9.5267       0.0705
     10.0871       0.0740
     10.6475       0.0775
     11.2078       0.0810
     11.7682       0.0845
     12.3286       0.0880
     12.8890       0.0915
     13.4494       0.0950
     14.0098       0.0985
     14.5702       0.1020
     15.1306       0.1055
     15.6910       0.1090
     16.2514       0.1125
     16.8118       0.1160
     17.3722       0.1195
     17.9326       0.1230
     18.4929       0.1265
     19.0533       0.1300
     19.6137       0.1335
     20.1741       0.1370
     20.7345       0.1405

EXERCÍCIO 02
 a = 300.00 mm
 b = 230.00 mm
 δ =   0.22 mm

EXERCÍCIO 03
 Item b
 d = 140.00 mm
