EXERCÍCIO 01
Teste Tração 01
 L0 = 100.00 mm
 d0 =  10.00 mm
 A  =  78.48 mm² (no limite de proporcionalidade)
  Carga [kN]  Desloc [mm]
      0.0000       0.0000
      0.4019       0.0026
      0.8039       0.0052
      1.2058       0.0079
      1.6078       0.0105
      2.0097       0.0131
      2.4116       0.0157
      2.8136       0.0184
      3.2155       0.0210
      3.6175       0.0236
      4.0194       0.0262
      4.4213       0.0289
      4.8233       0.0315
      5.2252       0.0341
      5.6271       0.0367
      6.0291       0.0394
      6.4310       0.0420
      6.8330       0.0446
      7.2349       0.0472
      7.6368       0.0499
      8.0388       0.0525
      8.4407       0.0551
      8.8427       0.0577
      9.2446       0.0604
      9.6465       0.0630
     10.0485       0.0656
     10.4504       0.0682
     10.8524       0.0709
     11.2543       0.0735
     11.6562       0.0761
     12.0582       0.0787
     12.4601       0.0814
     12.8620       0.0840
     13.2640       0.0866
     13.6659       0.0892
     14.0679       0.0919
     14.4698       0.0945
     14.8717       0.0971
     15.2737       0.0997
     15.6756       0.1024
     16.0776       0.1050
     16.4795       0.1076
     16.8814       0.1102
     17.2834       0.1129
     17.6853       0.1155
     18.0873       0.1181
     18.4892       0.1207
     18.8911       0.1233
     19.2931       0.1260
     19.6950       0.1286
     20.0970       0.1312
     20.4989       0.1338

Teste Tração 02
 L0 = 100.00 mm
 d0 =  10.00 mm
  Carga [kN]  Desloc [mm]
      0.0000       0.0116
      0.7069       0.0162
      1.4137       0.0208
      2.1206       0.0254
      2.8274       0.0301
      3.5343       0.0347
      4.2412       0.0393
      4.9480       0.0439
      5.6549       0.0485
      6.3617       0.0531
      7.0686       0.0578
      7.7754       0.0624
      8.4823       0.0670
      9.1892       0.0716
      9.8960       0.0762
     10.6029       0.0808
     11.3097       0.0854
     12.0166       0.0901
     12.7235       0.0947
     13.4303       0.0993
     14.1372       0.1039
     14.8440       0.1085
     15.5509       0.1131
     16.2577       0.1178
     16.9646       0.1224
     17.6715       0.1270
     18.3783       0.1316
     19.0852       0.1362
     19.7920       0.1408
     20.4989       0.1454

EXERCÍCIO 02
 a = 300.00 mm
 b = 255.00 mm
 δ =   0.11 mm

EXERCÍCIO 03
 Item a
 b =  75.00 mm
