EXERCÍCIO 01
Teste Tração 01
 L0 = 100.00 mm
 d0 =  10.00 mm
 A  =  78.46 mm² (no limite de proporcionalidade)
  Carga [kN]  Desloc [mm]
      0.0000       0.0000
      0.4550       0.0031
      0.9100       0.0061
      1.3650       0.0092
      1.8200       0.0123
      2.2749       0.0153
      2.7299       0.0184
      3.1849       0.0215
      3.6399       0.0245
      4.0949       0.0276
      4.5499       0.0307
      5.0049       0.0337
      5.4599       0.0368
      5.9149       0.0398
      6.3698       0.0429
      6.8248       0.0460
      7.2798       0.0490
      7.7348       0.0521
      8.1898       0.0552
      8.6448       0.0582
      9.0998       0.0613
      9.5548       0.0644
     10.0098       0.0674
     10.4648       0.0705
     10.9197       0.0736
     11.3747       0.0766
     11.8297       0.0797
     12.2847       0.0828
     12.7397       0.0858
     13.1947       0.0889
     13.6497       0.0920
     14.1047       0.0950
     14.5597       0.0981
     15.0146       0.1011
     15.4696       0.1042
     15.9246       0.1073
     16.3796       0.1103
     16.8346       0.1134
     17.2896       0.1165
     17.7446       0.1195
     18.1996       0.1226
     18.6546       0.1257
     19.1095       0.1287
     19.5645       0.1318
     20.0195       0.1349
     20.4745       0.1379
     20.9295       0.1410
     21.3845       0.1441
     21.8395       0.1471
     22.2945       0.1502
     22.7495       0.1533
     23.2045       0.1563
     23.6594       0.1594
     24.1144       0.1625
     24.5694       0.1655
     25.0244       0.1686
     25.4794       0.1716
     25.9344       0.1747
     26.3894       0.1778

Teste Tração 02
 L0 = 100.00 mm
 d0 =  10.00 mm
  Carga [kN]  Desloc [mm]
      0.0000       0.0123
      0.7330       0.0173
      1.4661       0.0222
      2.1991       0.0271
      2.9322       0.0321
      3.6652       0.0370
      4.3982       0.0419
      5.1313       0.0469
      5.8643       0.0518
      6.5973       0.0568
      7.3304       0.0617
      8.0634       0.0666
      8.7965       0.0716
      9.5295       0.0765
     10.2625       0.0815
     10.9956       0.0864
     11.7286       0.0913
     12.4617       0.0963
     13.1947       0.1012
     13.9277       0.1061
     14.6608       0.1111
     15.3938       0.1160
     16.1268       0.1210
     16.8599       0.1259
     17.5929       0.1308
     18.3260       0.1358
     19.0590       0.1407
     19.7920       0.1457
     20.5251       0.1506
     21.2581       0.1555
     21.9911       0.1605
     22.7242       0.1654
     23.4572       0.1703
     24.1903       0.1753
     24.9233       0.1802
     25.6563       0.1852
     26.3894       0.1901

EXERCÍCIO 02
 a = 325.00 mm
 b = 240.00 mm
 δ =   0.25 mm

EXERCÍCIO 03
 Item a
 b = 115.00 mm
