EXERCÍCIO 01
Teste Tração 01
 L0 = 100.00 mm
 d0 =  10.00 mm
 A  =  78.46 mm² (no limite de proporcionalidade)
  Carga [kN]  Desloc [mm]
      0.0000       0.0000
      0.3820       0.0024
      0.7641       0.0049
      1.1461       0.0073
      1.5282       0.0098
      1.9102       0.0122
      2.2923       0.0147
      2.6743       0.0171
      3.0564       0.0196
      3.4384       0.0220
      3.8205       0.0244
      4.2025       0.0269
      4.5846       0.0293
      4.9666       0.0318
      5.3487       0.0342
      5.7307       0.0367
      6.1128       0.0391
      6.4948       0.0416
      6.8769       0.0440
      7.2589       0.0464
      7.6410       0.0489
      8.0230       0.0513
      8.4051       0.0538
      8.7871       0.0562
      9.1692       0.0587
      9.5512       0.0611
      9.9333       0.0636
     10.3153       0.0660
     10.6974       0.0684
     11.0794       0.0709
     11.4615       0.0733
     11.8435       0.0758
     12.2256       0.0782
     12.6076       0.0807
     12.9897       0.0831
     13.3717       0.0856
     13.7538       0.0880
     14.1358       0.0904
     14.5179       0.0929
     14.8999       0.0953
     15.2820       0.0978
     15.6640       0.1002
     16.0461       0.1027
     16.4281       0.1051
     16.8102       0.1076
     17.1922       0.1100
     17.5743       0.1124
     17.9563       0.1149
     18.3384       0.1173
     18.7204       0.1198
     19.1025       0.1222
     19.4845       0.1247
     19.8666       0.1271
     20.2486       0.1296
     20.6307       0.1320
     21.0127       0.1344
     21.3948       0.1369
     21.7768       0.1393
     22.1589       0.1418
     22.5409       0.1442

Teste Tração 02
 L0 = 100.00 mm
 d0 =  10.00 mm
  Carga [kN]  Desloc [mm]
      0.0000       0.0137
      0.6831       0.0181
      1.3661       0.0224
      2.0492       0.0268
      2.7322       0.0312
      3.4153       0.0355
      4.0984       0.0399
      4.7814       0.0443
      5.4645       0.0486
      6.1475       0.0530
      6.8306       0.0574
      7.5136       0.0618
      8.1967       0.0661
      8.8798       0.0705
      9.5628       0.0749
     10.2459       0.0792
     10.9289       0.0836
     11.6120       0.0880
     12.2951       0.0923
     12.9781       0.0967
     13.6612       0.1011
     14.3442       0.1055
     15.0273       0.1098
     15.7103       0.1142
     16.3934       0.1186
     17.0765       0.1229
     17.7595       0.1273
     18.4426       0.1317
     19.1256       0.1360
     19.8087       0.1404
     20.4918       0.1448
     21.1748       0.1492
     21.8579       0.1535
     22.5409       0.1579

EXERCÍCIO 02
 a = 320.00 mm
 b = 265.00 mm
 δ =   0.20 mm

EXERCÍCIO 03
 Item a
 b =  90.00 mm
