EXERCÍCIO 01
Teste Tração 01
 L0 = 100.00 mm
 d0 =  10.00 mm
 A  =  78.48 mm² (no limite de proporcionalidade)
  Carga [kN]  Desloc [mm]
      0.0000       0.0000
      0.3898       0.0025
      0.7796       0.0050
      1.1694       0.0075
      1.5592       0.0100
      1.9490       0.0125
      2.3387       0.0150
      2.7285       0.0175
      3.1183       0.0200
      3.5081       0.0224
      3.8979       0.0249
      4.2877       0.0274
      4.6775       0.0299
      5.0673       0.0324
      5.4571       0.0349
      5.8469       0.0374
      6.2366       0.0399
      6.6264       0.0424
      7.0162       0.0449
      7.4060       0.0474
      7.7958       0.0499
      8.1856       0.0524
      8.5754       0.0549
      8.9652       0.0574
      9.3550       0.0599
      9.7448       0.0623
     10.1345       0.0648
     10.5243       0.0673
     10.9141       0.0698
     11.3039       0.0723
     11.6937       0.0748
     12.0835       0.0773
     12.4733       0.0798
     12.8631       0.0823
     13.2529       0.0848
     13.6427       0.0873
     14.0324       0.0898
     14.4222       0.0923
     14.8120       0.0948
     15.2018       0.0973
     15.5916       0.0998
     15.9814       0.1023
     16.3712       0.1047
     16.7610       0.1072
     17.1508       0.1097
     17.5406       0.1122
     17.9303       0.1147
     18.3201       0.1172
     18.7099       0.1197
     19.0997       0.1222
     19.4895       0.1247
     19.8793       0.1272
     20.2691       0.1297
     20.6589       0.1322
     21.0487       0.1347

Teste Tração 02
 L0 = 100.00 mm
 d0 =  10.00 mm
  Carga [kN]  Desloc [mm]
      0.0000       0.0101
      0.6790       0.0144
      1.3580       0.0188
      2.0370       0.0231
      2.7160       0.0275
      3.3949       0.0318
      4.0739       0.0361
      4.7529       0.0405
      5.4319       0.0448
      6.1109       0.0492
      6.7899       0.0535
      7.4689       0.0579
      8.1479       0.0622
      8.8269       0.0666
      9.5059       0.0709
     10.1848       0.0752
     10.8638       0.0796
     11.5428       0.0839
     12.2218       0.0883
     12.9008       0.0926
     13.5798       0.0970
     14.2588       0.1013
     14.9378       0.1057
     15.6168       0.1100
     16.2957       0.1143
     16.9747       0.1187
     17.6537       0.1230
     18.3327       0.1274
     19.0117       0.1317
     19.6907       0.1361
     20.3697       0.1404
     21.0487       0.1448

EXERCÍCIO 02
 a = 310.00 mm
 b = 235.00 mm
 δ =   0.06 mm

EXERCÍCIO 03
 Item b
 d = 135.00 mm
