EXERCÍCIO 01
Teste Tração 01
 L0 = 100.00 mm
 d0 =  10.00 mm
 A  =  78.46 mm² (no limite de proporcionalidade)
  Carga [kN]  Desloc [mm]
      0.0000       0.0000
      0.4756       0.0033
      0.9512       0.0067
      1.4268       0.0100
      1.9024       0.0134
      2.3780       0.0167
      2.8536       0.0201
      3.3292       0.0234
      3.8048       0.0268
      4.2804       0.0301
      4.7560       0.0335
      5.2316       0.0368
      5.7072       0.0401
      6.1828       0.0435
      6.6584       0.0468
      7.1340       0.0502
      7.6096       0.0535
      8.0852       0.0569
      8.5608       0.0602
      9.0364       0.0636
      9.5120       0.0669
      9.9876       0.0703
     10.4632       0.0736
     10.9389       0.0769
     11.4145       0.0803
     11.8901       0.0836
     12.3657       0.0870
     12.8413       0.0903
     13.3169       0.0937
     13.7925       0.0970
     14.2681       0.1004
     14.7437       0.1037
     15.2193       0.1071
     15.6949       0.1104
     16.1705       0.1138
     16.6461       0.1171
     17.1217       0.1204
     17.5973       0.1238
     18.0729       0.1271
     18.5485       0.1305
     19.0241       0.1338
     19.4997       0.1372
     19.9753       0.1405
     20.4509       0.1439
     20.9265       0.1472
     21.4021       0.1506
     21.8777       0.1539
     22.3533       0.1572
     22.8289       0.1606
     23.3045       0.1639
     23.7801       0.1673
     24.2557       0.1706
     24.7313       0.1740
     25.2069       0.1773
     25.6825       0.1807

Teste Tração 02
 L0 = 100.00 mm
 d0 =  10.00 mm
  Carga [kN]  Desloc [mm]
      0.0000       0.0100
      0.7134       0.0150
      1.4268       0.0200
      2.1402       0.0251
      2.8536       0.0301
      3.5670       0.0351
      4.2804       0.0401
      4.9938       0.0451
      5.7072       0.0501
      6.4206       0.0552
      7.1340       0.0602
      7.8474       0.0652
      8.5608       0.0702
      9.2742       0.0752
      9.9876       0.0803
     10.7010       0.0853
     11.4145       0.0903
     12.1279       0.0953
     12.8413       0.1003
     13.5547       0.1053
     14.2681       0.1104
     14.9815       0.1154
     15.6949       0.1204
     16.4083       0.1254
     17.1217       0.1304
     17.8351       0.1355
     18.5485       0.1405
     19.2619       0.1455
     19.9753       0.1505
     20.6887       0.1555
     21.4021       0.1606
     22.1155       0.1656
     22.8289       0.1706
     23.5423       0.1756
     24.2557       0.1806
     24.9691       0.1856
     25.6825       0.1907

EXERCÍCIO 02
 a = 310.00 mm
 b = 240.00 mm
 δ =   0.16 mm

EXERCÍCIO 03
 Item a
 b = 120.00 mm
