EXERCÍCIO 01
Teste Tração 01
 L0 = 100.00 mm
 d0 =  10.00 mm
 A  =  78.46 mm² (no limite de proporcionalidade)
  Carga [kN]  Desloc [mm]
      0.0000       0.0000
      0.4939       0.0035
      0.9878       0.0069
      1.4817       0.0104
      1.9756       0.0139
      2.4695       0.0174
      2.9634       0.0208
      3.4573       0.0243
      3.9512       0.0278
      4.4451       0.0313
      4.9389       0.0347
      5.4328       0.0382
      5.9267       0.0417
      6.4206       0.0452
      6.9145       0.0486
      7.4084       0.0521
      7.9023       0.0556
      8.3962       0.0591
      8.8901       0.0625
      9.3840       0.0660
      9.8779       0.0695
     10.3718       0.0730
     10.8657       0.0764
     11.3596       0.0799
     11.8535       0.0834
     12.3474       0.0869
     12.8413       0.0903
     13.3352       0.0938
     13.8290       0.0973
     14.3229       0.1008
     14.8168       0.1042
     15.3107       0.1077
     15.8046       0.1112
     16.2985       0.1147
     16.7924       0.1181
     17.2863       0.1216
     17.7802       0.1251
     18.2741       0.1285
     18.7680       0.1320
     19.2619       0.1355
     19.7558       0.1390
     20.2497       0.1424
     20.7436       0.1459
     21.2375       0.1494
     21.7314       0.1529
     22.2253       0.1563
     22.7192       0.1598
     23.2130       0.1633
     23.7069       0.1668
     24.2008       0.1702
     24.6947       0.1737
     25.1886       0.1772
     25.6825       0.1807

Teste Tração 02
 L0 = 100.00 mm
 d0 =  10.00 mm
  Carga [kN]  Desloc [mm]
      0.0000       0.0129
      0.7554       0.0182
      1.5107       0.0235
      2.2661       0.0288
      3.0215       0.0341
      3.7768       0.0394
      4.5322       0.0448
      5.2876       0.0501
      6.0429       0.0554
      6.7983       0.0607
      7.5537       0.0660
      8.3091       0.0713
      9.0644       0.0766
      9.8198       0.0820
     10.5752       0.0873
     11.3305       0.0926
     12.0859       0.0979
     12.8413       0.1032
     13.5966       0.1085
     14.3520       0.1138
     15.1074       0.1192
     15.8627       0.1245
     16.6181       0.1298
     17.3735       0.1351
     18.1288       0.1404
     18.8842       0.1457
     19.6396       0.1510
     20.3949       0.1563
     21.1503       0.1617
     21.9057       0.1670
     22.6610       0.1723
     23.4164       0.1776
     24.1718       0.1829
     24.9272       0.1882
     25.6825       0.1935

EXERCÍCIO 02
 a = 340.00 mm
 b = 260.00 mm
 δ =   0.11 mm

EXERCÍCIO 03
 Item a
 b = 135.00 mm
