EXERCÍCIO 01
Teste Tração 01
 L0 = 100.00 mm
 d0 =  10.00 mm
 A  =  78.47 mm² (no limite de proporcionalidade)
  Carga [kN]  Desloc [mm]
      0.0000       0.0000
      0.4154       0.0026
      0.8307       0.0053
      1.2461       0.0079
      1.6614       0.0105
      2.0768       0.0132
      2.4921       0.0158
      2.9075       0.0184
      3.3228       0.0210
      3.7382       0.0237
      4.1535       0.0263
      4.5689       0.0289
      4.9843       0.0316
      5.3996       0.0342
      5.8150       0.0368
      6.2303       0.0395
      6.6457       0.0421
      7.0610       0.0447
      7.4764       0.0474
      7.8917       0.0500
      8.3071       0.0526
      8.7225       0.0553
      9.1378       0.0579
      9.5532       0.0605
      9.9685       0.0631
     10.3839       0.0658
     10.7992       0.0684
     11.2146       0.0710
     11.6299       0.0737
     12.0453       0.0763
     12.4606       0.0789
     12.8760       0.0816
     13.2914       0.0842
     13.7067       0.0868
     14.1221       0.0895
     14.5374       0.0921
     14.9528       0.0947
     15.3681       0.0973
     15.7835       0.1000
     16.1988       0.1026
     16.6142       0.1052
     17.0295       0.1079
     17.4449       0.1105
     17.8603       0.1131
     18.2756       0.1158
     18.6910       0.1184
     19.1063       0.1210
     19.5217       0.1237
     19.9370       0.1263
     20.3524       0.1289
     20.7677       0.1316
     21.1831       0.1342
     21.5984       0.1368

Teste Tração 02
 L0 = 100.00 mm
 d0 =  10.00 mm
  Carga [kN]  Desloc [mm]
      0.0000       0.0134
      0.6171       0.0173
      1.2342       0.0212
      1.8513       0.0251
      2.4684       0.0290
      3.0855       0.0329
      3.7026       0.0368
      4.3197       0.0407
      4.9368       0.0446
      5.5539       0.0485
      6.1710       0.0525
      6.7881       0.0564
      7.4052       0.0603
      8.0223       0.0642
      8.6394       0.0681
      9.2565       0.0720
      9.8736       0.0759
     10.4907       0.0798
     11.1078       0.0837
     11.7249       0.0876
     12.3420       0.0915
     12.9591       0.0954
     13.5762       0.0994
     14.1933       0.1033
     14.8104       0.1072
     15.4275       0.1111
     16.0446       0.1150
     16.6617       0.1189
     17.2788       0.1228
     17.8959       0.1267
     18.5130       0.1306
     19.1301       0.1345
     19.7472       0.1384
     20.3643       0.1424
     20.9814       0.1463
     21.5984       0.1502

EXERCÍCIO 02
 a = 340.00 mm
 b = 255.00 mm
 δ =   0.10 mm

EXERCÍCIO 03
 Item a
 b =  75.00 mm
